SpectraSuite Datei
++++++++++++++++++++++++++++++++++++
Datum: Mon Jan 08 15:25:23 CET 2018
Benutzer: Praktikum-Pc1
Dark-Spektrum vorhanden: Ja
Referenz-Spektrum vorhanden: Nein
Zahl der probierten Teilspektren: 1
Spektrometer: USB4H10187
Integrationszeit (usec): 67000 (USB4H10187)
Spektren Durchschnitt berechnet: 50 (USB4H10187)
Boxcar Glâ€°ttung: 0 (USB4H10187)
Dunkelstromkorrektur: Nein (USB4H10187)
Puls/Lampe aktiviert: Nein (USB4H10187)
Correct for Detector Non-linearity: Nein (USB4H10187)
Streulichtkorrektur: Nein (USB4H10187)
Anzahl Pixel in verarbeitetem Spektrum: 3648
>>>>>Begin Processed Spectral Data<<<<<
176,80	-48,54
177,02	-48,54
177,24	-48,54
177,46	-41,78
177,68	-48,70
177,91	-63,98
178,13	-55,25
178,35	-66,64
178,57	-60,01
178,79	-60,33
179,02	-48,45
179,24	-60,87
179,46	-60,87
179,68	-49,93
179,90	-46,33
180,12	-57,88
180,35	-52,84
180,57	-51,20
180,79	-40,71
181,01	-26,30
181,23	-29,70
181,46	-19,82
181,68	-29,37
181,90	-33,96
182,12	-31,17
182,34	-33,14
182,56	-37,19
182,79	-25,76
183,01	-32,19
183,23	-28,02
183,45	-21,46
183,67	-29,20
183,89	-37,48
184,12	-29,94
184,34	-16,63
184,56	-36,54
184,78	-34,65
185,00	-22,53
185,22	-25,48
185,45	-27,73
185,67	-20,19
185,89	-21,87
186,11	-38,05
186,33	-22,86
186,55	-24,90
186,77	-16,71
187,00	-28,30
187,22	-19,54
187,44	-17,74
187,66	-20,81
187,88	-19,95
188,10	-14,38
188,32	-28,26
188,55	-27,98
188,77	-8,31
188,99	-16,22
189,21	-14,70
189,43	-22,77
189,65	-23,18
189,87	-18,55
190,10	-18,47
190,32	-32,28
190,54	-19,09
190,76	-21,01
190,98	-22,00
191,20	-26,13
191,42	-23,92
191,64	-25,85
191,87	-20,40
192,09	-32,03
192,31	-18,10
192,53	-27,69
192,75	-24,99
192,97	-15,36
193,19	-28,10
193,41	-22,12
193,64	-24,17
193,86	-9,79
194,08	-15,89
194,30	-12,86
194,52	-21,79
194,74	-22,36
194,96	-13,76
195,18	-22,90
195,40	-26,79
195,63	-12,78
195,85	-35,47
196,07	-21,18
196,29	-22,00
196,51	-24,66
196,73	-12,98
196,95	-25,93
197,17	-23,31
197,39	-33,79
197,61	-22,08
197,84	-22,57
198,06	-19,87
198,28	-19,09
198,50	-33,05
198,72	-13,97
198,94	-27,65
199,16	-15,81
199,38	-16,92
199,60	-20,81
199,82	-30,80
200,04	-18,68
200,26	-29,53
200,49	-23,43
200,71	-32,89
200,93	-19,46
201,15	-13,19
201,37	-15,69
201,59	-27,28
201,81	-22,04
202,03	-29,00
202,25	-18,51
202,47	-21,22
202,69	-16,10
202,91	-25,31
203,13	-14,79
203,35	-26,58
203,58	-16,06
203,80	-29,00
204,02	-25,56
204,24	-19,37
204,46	-7,82
204,68	-22,28
204,90	-30,68
205,12	-24,25
205,34	-23,92
205,56	-17,33
205,78	-17,94
206,00	-15,11
206,22	-12,25
206,44	-13,80
206,66	-2,54
206,88	-11,63
207,10	-4,30
207,32	-5,28
207,54	-23,92
207,76	-20,40
207,99	-16,79
208,21	-9,46
208,43	-13,03
208,65	-10,90
208,87	-24,41
209,09	-22,61
209,31	-20,64
209,53	-19,54
209,75	-24,37
209,97	-14,05
210,19	-37,31
210,41	-18,76
210,63	-17,49
210,85	-11,76
211,07	-19,33
211,29	-10,57
211,51	-20,32
211,73	-28,75
211,95	-23,14
212,17	-2,09
212,39	-8,31
212,61	-10,90
212,83	-13,31
213,05	-8,40
213,27	-13,80
213,49	-7,95
213,71	-13,03
213,93	-4,59
214,15	-10,98
214,37	-1,68
214,59	-18,76
214,81	-8,56
215,03	-17,90
215,25	-25,56
215,47	-10,94
215,69	-2,70
215,91	-20,15
216,13	-16,63
216,35	-2,05
216,57	-1,27
216,79	-12,94
217,01	-13,72
217,23	-2,91
217,45	-16,10
217,67	-18,96
217,89	-17,16
218,11	-11,39
218,33	-18,27
218,55	-6,84
218,77	-10,28
218,99	-22,49
219,21	-17,82
219,43	-8,52
219,65	-14,99
219,87	-20,32
220,09	-11,51
220,31	-16,71
220,53	-13,68
220,75	-15,73
220,97	-8,03
221,19	-25,27
221,41	-0,98
221,63	-7,25
221,85	1,43
222,06	-33,91
222,28	-7,29
222,50	-16,38
222,72	-9,87
222,94	-11,55
223,16	-10,85
223,38	-17,12
223,60	-14,25
223,82	-17,90
224,04	-18,96
224,26	1,15
224,48	-17,45
224,70	-9,34
224,92	-16,18
225,14	-13,11
225,36	-29,78
225,58	-18,19
225,80	-18,31
226,02	-13,93
226,24	-1,39
226,45	-14,79
226,67	-16,59
226,89	-16,79
227,11	-20,36
227,33	-14,29
227,55	-15,97
227,77	4,75
227,99	-12,12
228,21	-19,91
228,43	-12,53
228,65	-9,05
228,87	-7,66
229,09	-21,50
229,31	-2,79
229,52	-15,32
229,74	-3,60
229,96	-10,24
230,18	-19,91
230,40	-11,10
230,62	-12,74
230,84	-20,36
231,06	-7,33
231,28	-0,57
231,50	-15,11
231,72	-4,14
231,94	-24,99
232,15	-16,92
232,37	-12,70
232,59	-2,38
232,81	-17,24
233,03	-16,06
233,25	-5,49
233,47	-8,27
233,69	-12,04
233,91	-10,32
234,13	-7,86
234,34	1,39
234,56	-7,29
234,78	-19,21
235,00	-10,85
235,22	-23,51
235,44	-2,50
235,66	-15,77
235,88	-11,18
236,10	-10,20
236,31	-12,98
236,53	-5,12
236,75	-9,26
236,97	-8,81
237,19	-13,35
237,41	-23,43
237,63	-11,43
237,85	0,41
238,07	-17,82
238,28	-18,39
238,50	-4,01
238,72	-6,55
238,94	2,29
239,16	-5,90
239,38	-11,22
239,60	-7,70
239,81	-0,25
240,03	-7,17
240,25	-5,94
240,47	-12,57
240,69	-13,15
240,91	-4,55
241,13	-2,62
241,34	3,40
241,56	-7,58
241,78	-4,75
242,00	-8,11
242,22	-1,97
242,44	-10,94
242,66	-3,85
242,87	-12,49
243,09	-2,83
243,31	-10,81
243,53	-12,21
243,75	7,05
243,97	-8,68
244,19	6,59
244,40	-8,64
244,62	-2,33
244,84	-9,26
245,06	-13,03
245,28	-5,00
245,50	-1,64
245,71	-16,67
245,93	-4,75
246,15	-10,28
246,37	-8,36
246,59	3,32
246,81	11,39
247,02	-8,40
247,24	-4,22
247,46	-8,68
247,68	-6,96
247,90	-7,33
248,11	-9,50
248,33	-5,94
248,55	1,06
248,77	-9,63
248,99	-8,36
249,21	-2,70
249,42	-8,81
249,64	-12,16
249,86	-5,82
250,08	-5,78
250,30	-8,36
250,51	-5,57
250,73	0,04
250,95	2,95
251,17	-12,82
251,39	-13,11
251,60	3,77
251,82	0,41
252,04	-2,01
252,26	1,84
252,48	3,03
252,69	6,02
252,91	-5,37
253,13	2,01
253,35	-6,31
253,57	-9,87
253,78	5,82
254,00	1,72
254,22	13,52
254,44	10,53
254,65	4,71
254,87	-19,46
255,09	-2,66
255,31	-2,70
255,53	-7,17
255,74	12,00
255,96	0,20
256,18	3,15
256,40	0,25
256,61	3,65
256,83	-2,66
257,05	-5,86
257,27	-2,33
257,48	1,97
257,70	-8,77
257,92	7,05
258,14	-2,09
258,36	-2,29
258,57	5,24
258,79	4,26
259,01	2,42
259,23	1,27
259,44	7,45
259,66	5,98
259,88	1,19
260,10	-1,97
260,31	2,87
260,53	8,07
260,75	8,81
260,97	-3,77
261,18	-19,01
261,40	3,93
261,62	1,56
261,84	2,95
262,05	2,38
262,27	-1,68
262,49	2,83
262,71	6,80
262,92	-9,67
263,14	5,16
263,36	4,42
263,57	8,15
263,79	4,30
264,01	5,49
264,23	2,87
264,44	-4,46
264,66	-2,54
264,88	5,94
265,10	-2,66
265,31	2,29
265,53	-9,01
265,75	-2,38
265,96	7,62
266,18	12,45
266,40	-6,23
266,62	-10,36
266,83	-7,62
267,05	13,60
267,27	14,01
267,48	4,67
267,70	6,23
267,92	-2,54
268,14	5,41
268,35	9,05
268,57	3,93
268,79	1,64
269,00	5,65
269,22	11,18
269,44	-6,59
269,65	1,47
269,87	7,33
270,09	4,30
270,31	8,81
270,52	-1,84
270,74	3,85
270,96	1,64
271,17	1,80
271,39	6,02
271,61	11,67
271,82	5,86
272,04	1,93
272,26	0,37
272,47	-1,43
272,69	-0,78
272,91	14,05
273,12	5,37
273,34	8,93
273,56	9,22
273,77	5,28
273,99	9,63
274,21	4,59
274,42	10,61
274,64	22,12
274,86	2,79
275,08	8,23
275,29	32,93
275,51	12,57
275,72	12,78
275,94	4,67
276,16	9,75
276,37	12,33
276,59	12,12
276,81	7,50
277,02	6,39
277,24	17,16
277,46	9,22
277,67	15,32
277,89	16,47
278,11	-0,90
278,32	1,56
278,54	9,87
278,76	1,31
278,97	16,67
279,19	18,15
279,41	18,23
279,62	8,03
279,84	4,01
280,05	3,65
280,27	22,98
280,49	12,74
280,70	6,84
280,92	-2,05
281,14	11,39
281,35	23,26
281,57	10,77
281,79	17,04
282,00	13,93
282,22	19,33
282,43	14,13
282,65	4,67
282,87	8,27
283,08	4,83
283,30	6,96
283,52	6,47
283,73	18,31
283,95	9,22
284,16	17,57
284,38	27,73
284,60	21,79
284,81	9,09
285,03	21,50
285,24	8,23
285,46	16,71
285,68	14,66
285,89	14,91
286,11	0,57
286,32	12,53
286,54	11,76
286,76	18,19
286,97	13,39
287,19	13,97
287,40	18,35
287,62	30,88
287,84	13,60
288,05	22,65
288,27	22,86
288,48	26,91
288,70	9,46
288,92	18,64
289,13	16,10
289,35	5,08
289,56	8,31
289,78	17,08
289,99	7,66
290,21	21,42
290,43	21,46
290,64	19,05
290,86	16,10
291,07	16,26
291,29	14,79
291,51	21,95
291,72	12,57
291,94	8,07
292,15	25,89
292,37	23,63
292,58	19,70
292,80	8,19
293,01	14,50
293,23	17,94
293,45	17,90
293,66	7,50
293,88	7,99
294,09	20,64
294,31	24,78
294,52	0,61
294,74	26,25
294,96	20,44
295,17	24,99
295,39	12,78
295,60	31,46
295,82	21,05
296,03	23,18
296,25	23,47
296,46	19,87
296,68	24,90
296,89	17,24
297,11	27,81
297,32	5,86
297,54	36,37
297,76	19,46
297,97	31,58
298,19	28,88
298,40	17,61
298,62	28,71
298,83	21,22
299,05	17,65
299,26	29,70
299,48	25,19
299,69	20,48
299,91	6,96
300,12	23,96
300,34	31,95
300,55	7,66
300,77	24,62
300,98	30,43
301,20	22,28
301,41	21,71
301,63	22,40
301,84	18,55
302,06	28,55
302,28	33,01
302,49	23,76
302,71	16,71
302,92	20,81
303,14	34,32
303,35	13,07
303,57	25,80
303,78	32,77
304,00	22,77
304,21	23,14
304,43	26,62
304,64	24,29
304,86	34,57
305,07	33,34
305,29	33,22
305,50	45,71
305,71	27,28
305,93	11,35
306,14	28,10
306,36	19,37
306,57	25,56
306,79	23,22
307,00	39,08
307,22	17,98
307,43	27,16
307,65	22,94
307,86	14,46
308,08	35,35
308,29	37,56
308,51	32,07
308,72	19,29
308,94	21,95
309,15	25,68
309,37	26,87
309,58	25,72
309,80	28,84
310,01	27,89
310,22	12,82
310,44	43,58
310,65	37,07
310,87	13,43
311,08	22,49
311,30	38,22
311,51	25,15
311,73	34,16
311,94	34,98
312,16	29,90
312,37	29,41
312,58	33,26
312,80	29,74
313,01	28,26
313,23	35,59
313,44	29,33
313,66	24,94
313,87	26,34
314,09	35,55
314,30	28,92
314,51	39,08
314,73	26,38
314,94	41,94
315,16	37,23
315,37	39,12
315,59	48,37
315,80	39,08
316,01	31,50
316,23	52,55
316,44	39,69
316,66	32,52
316,87	32,19
317,09	49,81
317,30	44,48
317,51	50,13
317,73	36,13
317,94	40,59
318,16	47,35
318,37	57,43
318,58	68,89
318,80	67,09
319,01	62,46
319,23	65,82
319,44	53,25
319,66	57,88
319,87	76,84
320,08	85,44
320,30	79,67
320,51	76,68
320,73	90,85
320,94	91,71
321,15	111,33
321,37	104,00
321,58	99,82
321,80	104,36
322,01	102,03
322,22	101,25
322,44	108,54
322,65	123,53
322,86	132,26
323,08	129,10
323,29	136,03
323,51	146,96
323,72	153,64
323,93	162,69
324,15	170,55
324,36	177,19
324,58	167,16
324,79	180,26
325,00	192,59
325,22	211,84
325,43	215,65
325,64	249,73
325,86	267,79
326,07	288,68
326,28	303,26
326,50	320,14
326,71	332,79
326,93	333,66
327,14	333,86
327,35	334,27
327,57	352,46
327,78	360,36
327,99	351,51
328,21	389,44
328,42	438,35
328,63	471,81
328,85	519,94
329,06	528,79
329,27	606,24
329,49	611,44
329,70	644,05
329,91	648,76
330,13	642,28
330,34	643,96
330,56	668,91
330,77	662,44
330,98	708,52
331,20	708,60
331,41	761,35
331,62	827,01
331,84	853,06
332,05	895,25
332,26	923,80
332,48	960,58
332,69	1016,45
332,90	999,61
333,11	1010,02
333,33	1059,00
333,54	1102,87
333,75	1137,44
333,97	1161,03
334,18	1217,93
334,39	1284,04
334,61	1342,89
334,82	1382,22
335,03	1472,41
335,25	1475,03
335,46	1461,80
335,67	1438,08
335,89	1432,84
336,10	1419,82
336,31	1373,24
336,53	1411,62
336,74	1433,78
336,95	1478,02
337,16	1531,39
337,38	1597,13
337,59	1689,29
337,80	1750,44
338,02	1867,26
338,23	1939,96
338,44	2044,32
338,65	2135,01
338,87	2203,33
339,08	2261,82
339,29	2378,14
339,51	2444,09
339,72	2550,29
339,93	2642,17
340,14	2715,93
340,36	2759,68
340,57	2770,66
340,78	2826,73
341,00	2869,98
341,21	2913,93
341,42	2990,12
341,63	3099,56
341,85	3113,81
342,06	3295,14
342,27	3416,01
342,49	3506,53
342,70	3607,66
342,91	3609,34
343,12	3600,70
343,34	3590,38
343,55	3540,90
343,76	3515,75
343,97	3414,00
344,19	3431,08
344,40	3616,10
344,61	3658,98
344,82	3759,37
345,04	3860,18
345,25	3961,84
345,46	3979,53
345,67	4114,94
345,89	4222,42
346,10	4191,74
346,31	4319,21
346,52	4432,42
346,74	4403,99
346,95	4508,85
347,16	4587,33
347,37	4525,11
347,59	4549,28
347,80	4646,68
348,01	4758,46
348,22	4755,51
348,43	4894,44
348,65	4780,37
348,86	4834,31
349,07	5047,18
349,28	5094,98
349,50	5301,99
349,71	5541,03
349,92	5592,92
350,13	5886,60
350,34	5976,55
350,56	6120,03
350,77	6242,66
350,98	6120,27
351,19	6140,92
351,41	6276,86
351,62	6080,26
351,83	6041,84
352,04	6107,66
352,25	6062,36
352,47	6316,10
352,68	6361,20
352,89	6544,12
353,10	6837,80
353,31	7126,19
353,53	7383,95
353,74	7436,99
353,95	7762,05
354,16	7809,15
354,37	7967,87
354,59	7889,59
354,80	8077,27
355,01	8055,28
355,22	8022,14
355,43	7939,93
355,65	7750,17
355,86	7700,49
356,07	7525,47
356,28	7323,45
356,49	7210,24
356,70	7062,01
356,92	6797,33
357,13	6851,60
357,34	6625,14
357,55	6576,89
357,76	6349,28
357,98	6275,06
358,19	6235,20
358,40	6401,21
358,61	6694,40
358,82	7005,20
359,03	7539,06
359,25	7990,44
359,46	8650,46
359,67	8660,49
359,88	8789,68
360,09	8750,23
360,30	8599,01
360,51	8559,65
360,73	8496,86
360,94	8347,77
361,15	8280,43
361,36	8207,32
361,57	8361,65
361,78	8428,09
362,00	8738,97
362,21	9050,88
362,42	9289,50
362,63	9334,89
362,84	9594,73
363,05	9595,76
363,26	9745,75
363,48	9707,86
363,69	9846,47
363,90	9943,54
364,11	9996,59
364,32	10154,89
364,53	10162,76
364,74	10543,27
364,95	10734,02
365,17	11084,18
365,38	11523,72
365,59	11968,25
365,80	12209,46
366,01	12489,33
366,22	12672,18
366,43	12664,76
366,64	12613,97
366,86	12750,98
367,07	12752,50
367,28	12452,59
367,49	12243,00
367,70	12443,70
367,91	12148,43
368,12	12147,12
368,33	12028,91
368,54	12040,42
368,76	12357,20
368,97	12674,55
369,18	13150,21
369,39	12996,45
369,60	13242,53
369,81	13198,01
370,02	13055,76
370,23	12920,31
370,44	12903,55
370,65	12841,13
370,87	12941,69
371,08	12979,62
371,29	12948,24
371,50	12810,54
371,71	12719,48
371,92	12363,92
372,13	12415,93
372,34	12301,86
372,55	11814,53
372,76	11386,42
372,97	11270,91
373,18	10872,63
373,40	10852,19
373,61	10573,91
373,82	10439,93
374,03	10285,96
374,24	10489,29
374,45	10348,22
374,66	10704,53
374,87	10770,31
375,08	11180,03
375,29	11591,99
375,50	11779,02
375,71	12142,90
375,92	12044,39
376,13	12211,83
376,34	12540,65
376,56	12583,83
376,77	12897,66
376,98	13245,32
377,19	13677,03
377,40	14232,44
377,61	14730,18
377,82	14889,47
378,03	15082,80
378,24	15076,08
378,45	14547,71
378,66	14106,90
378,87	13414,93
379,08	13148,49
379,29	13101,10
379,50	12677,17
379,71	12546,06
379,92	13026,39
380,13	13162,50
380,34	13211,20
380,55	13411,94
380,76	13370,90
380,97	13529,37
381,18	12802,02
381,39	12352,32
381,60	11960,71
381,81	11129,36
382,02	10720,30
382,24	10124,46
382,45	9469,81
382,66	9138,90
382,87	8831,87
383,08	8632,35
383,29	8733,07
383,50	8772,76
383,71	9247,73
383,92	9620,13
384,13	10062,78
384,34	10720,71
384,55	11106,09
384,76	11788,15
384,97	11837,05
385,18	11971,11
385,39	11794,91
385,60	11835,46
385,81	11802,98
386,02	11849,51
386,23	11870,93
386,44	12328,24
386,65	12042,38
386,86	12055,37
387,07	12110,91
387,28	12281,91
387,49	12076,91
387,70	12163,75
387,91	12097,72
388,12	12110,42
388,32	12170,96
388,53	12247,26
388,74	12716,29
388,95	13087,91
389,16	13523,07
389,37	14055,70
389,58	14360,52
389,79	14699,62
390,00	14908,52
390,21	15083,25
390,42	15559,20
390,63	15640,83
390,84	15974,40
391,05	16084,54
391,26	16346,40
391,47	15981,98
391,68	15910,63
391,89	15010,55
392,10	14463,21
392,31	13218,08
392,52	12246,77
392,73	11059,20
392,94	9782,41
393,15	9348,98
393,36	8851,69
393,57	9035,02
393,78	9608,66
393,98	10599,79
394,19	11401,49
394,40	12127,42
394,61	13151,97
394,82	14506,79
395,03	15037,70
395,24	15222,80
395,45	15265,60
395,66	14861,66
395,87	13957,69
396,08	13162,34
396,29	11934,17
396,50	11082,66
396,71	10376,32
396,92	10428,26
397,12	11039,17
397,33	11908,73
397,54	13059,90
397,75	14599,44
397,96	15536,10
398,17	16848,56
398,38	17852,14
398,59	18766,77
398,80	18873,26
399,01	19603,89
399,22	20211,44
399,43	20044,13
399,63	20286,36
399,84	21185,01
400,05	20698,70
400,26	20714,79
400,47	21322,71
400,68	21225,84
400,89	21311,41
401,10	21647,23
401,31	21614,34
401,52	21761,67
401,72	22087,71
401,93	21959,55
402,14	22178,76
402,35	22019,80
402,56	22312,87
402,77	21476,39
402,98	21439,00
403,19	21718,87
403,40	21488,56
403,60	21486,63
403,81	21411,39
404,02	21219,45
404,23	21511,13
404,44	21304,65
404,65	21302,64
404,86	20976,48
405,07	21170,43
405,27	20801,71
405,48	21051,52
405,69	20467,93
405,90	20699,56
406,11	20391,26
406,32	20299,63
406,53	20708,00
406,74	20530,07
406,94	20158,77
407,15	21028,58
407,36	20804,00
407,57	20987,83
407,78	21351,79
407,99	21786,29
408,20	21542,71
408,40	22296,81
408,61	22536,34
408,82	22282,84
409,03	22673,80
409,24	22029,84
409,45	21575,35
409,65	21243,58
409,86	21070,69
410,07	20746,74
410,28	20604,12
410,49	21012,53
410,70	21005,69
410,90	21638,47
411,11	22527,74
411,32	22285,63
411,53	22527,74
411,74	23046,61
411,95	23600,51
412,15	23398,90
412,36	23206,44
412,57	22780,21
412,78	22945,07
412,99	22952,00
413,20	22815,97
413,40	22560,79
413,61	22734,95
413,82	23649,49
414,03	22505,25
414,24	22706,89
414,44	22529,66
414,65	22818,75
414,86	23018,92
415,07	22622,19
415,28	22850,09
415,48	22663,23
415,69	22679,25
415,90	23196,40
416,11	23332,79
416,32	22956,99
416,53	22841,36
416,73	22880,19
416,94	22423,01
417,15	22815,48
417,36	22322,12
417,56	21586,53
417,77	21710,11
417,98	21971,59
418,19	21702,49
418,40	21999,61
418,60	22233,40
418,81	21914,90
419,02	21578,75
419,23	22323,60
419,44	21189,72
419,64	21225,23
419,85	21330,09
420,06	21107,59
420,27	21856,74
420,47	22156,85
420,68	21955,09
420,89	22286,61
421,10	22953,27
421,30	22554,81
421,51	22834,40
421,72	22469,53
421,93	22156,65
422,14	20950,80
422,34	21352,20
422,55	21124,55
422,76	20979,84
422,97	21168,46
423,17	21228,30
423,38	21359,41
423,59	20685,34
423,80	20972,02
424,00	21010,11
424,21	20787,70
424,42	21081,22
424,63	21228,88
424,83	21040,59
425,04	21394,43
425,25	20660,73
425,46	21207,45
425,66	20915,21
425,87	21033,70
426,08	20434,84
426,28	21367,07
426,49	20455,97
426,70	20726,02
426,91	20358,61
427,11	20375,98
427,32	19977,57
427,53	20047,07
427,74	20337,35
427,94	20291,68
428,15	20219,96
428,36	20126,99
428,56	20134,89
428,77	20000,87
428,98	19426,50
429,19	18707,54
429,39	18246,62
429,60	17979,81
429,81	17386,31
430,01	16282,91
430,22	15880,93
430,43	15890,84
430,64	15676,01
430,84	16144,59
431,05	17083,30
431,26	18179,25
431,46	19049,18
431,67	19611,06
431,88	20718,56
432,08	20559,03
432,29	21304,94
432,50	21458,41
432,70	21319,19
432,91	21555,08
433,12	21928,95
433,33	21284,38
433,53	20948,63
433,74	21125,70
433,95	20701,89
434,15	20224,18
434,36	20958,05
434,57	20719,30
434,77	21068,27
434,98	21659,15
435,19	21610,21
435,39	22075,67
435,60	22654,30
435,81	23389,89
436,01	23152,45
436,22	23709,58
436,43	23675,99
436,63	23957,14
436,84	23890,99
437,05	23605,67
437,25	22947,16
437,46	22796,51
437,67	22622,15
437,87	21731,08
438,08	21338,24
438,29	21533,90
438,49	21131,88
438,70	20909,35
438,91	21590,30
439,11	22462,33
439,32	22648,16
439,52	21917,89
439,73	21711,83
439,94	22145,59
440,14	22511,72
440,35	23008,31
440,56	22421,49
440,76	22726,10
440,97	23353,52
441,18	23515,56
441,38	23313,71
441,59	23911,71
441,79	24267,61
442,00	24543,43
442,21	24357,52
442,41	24508,33
442,62	23932,19
442,83	24077,64
443,03	23954,19
443,24	23896,89
443,44	24434,32
443,65	24348,18
443,86	23787,94
444,06	24255,81
444,27	24557,68
444,48	24520,04
444,68	24311,27
444,89	24351,78
445,09	24496,37
445,30	23338,20
445,51	23729,53
445,71	23287,04
445,92	23282,25
446,12	23582,77
446,33	23469,89
446,54	23736,90
446,74	24231,81
446,95	23551,11
447,15	24508,21
447,36	24476,34
447,57	24241,56
447,77	24581,32
447,98	24625,76
448,18	24367,43
448,39	23829,39
448,59	24745,44
448,80	24568,74
449,01	24380,86
449,21	24409,66
449,42	24513,49
449,62	25097,78
449,83	24956,83
450,04	24987,18
450,24	25853,64
450,45	25654,49
450,65	25564,63
450,86	25575,48
451,06	26013,91
451,27	25960,46
451,47	25199,07
451,68	25047,31
451,89	24983,25
452,09	24925,30
452,30	23890,25
452,50	23846,18
452,71	23960,70
452,91	23516,78
453,12	23473,90
453,33	23443,51
453,53	23076,92
453,74	24322,91
453,94	23796,78
454,15	23306,21
454,35	23324,28
454,56	23886,77
454,76	24272,57
454,97	23406,97
455,17	23832,95
455,38	24292,43
455,58	24269,13
455,79	23931,95
456,00	24296,98
456,20	24413,71
456,41	24718,08
456,61	23754,92
456,82	23849,46
457,02	24737,21
457,23	24651,48
457,43	24733,20
457,64	23913,93
457,84	23848,76
458,05	23862,77
458,25	23670,46
458,46	23855,44
458,66	23701,92
458,87	23954,76
459,07	24105,45
459,28	23722,61
459,48	23581,30
459,69	23944,97
459,89	23725,60
460,10	24031,60
460,30	24746,51
460,51	24318,24
460,71	24613,92
460,92	24673,68
461,12	24770,67
461,33	25396,00
461,53	24783,49
461,74	24733,07
461,94	24859,43
462,15	25402,55
462,35	25439,83
462,56	25061,98
462,76	25170,15
462,97	25392,76
463,17	25104,25
463,38	24933,73
463,58	24679,74
463,79	25685,91
463,99	25017,09
464,20	25054,28
464,40	24798,73
464,61	24642,88
464,81	25136,97
465,02	24777,80
465,22	25128,45
465,43	25521,79
465,63	25118,17
465,83	25219,55
466,04	25686,16
466,24	25048,34
466,45	25565,86
466,65	24840,10
466,86	25080,00
467,06	25129,35
467,27	25189,93
467,47	25898,65
467,68	25476,53
467,88	25666,62
468,08	25870,64
468,29	25856,83
468,49	26321,52
468,70	26432,68
468,90	26509,28
469,11	26837,32
469,31	26806,27
469,52	26507,43
469,72	27718,97
469,92	26529,26
470,13	26764,58
470,33	26439,69
470,54	26149,00
470,74	26578,78
470,95	26868,69
471,15	27539,81
471,35	27573,93
471,56	27967,23
471,76	28678,53
471,97	28906,59
472,17	28910,89
472,38	29104,50
472,58	29195,88
472,78	29355,30
472,99	29001,86
473,19	29105,04
473,40	29785,74
473,60	28954,59
473,80	29897,85
474,01	30148,80
474,21	30419,54
474,42	30583,67
474,62	31111,10
474,83	30501,71
475,03	31087,59
475,23	30896,80
475,44	31293,41
475,64	31258,93
475,85	30826,84
476,05	30682,22
476,25	31323,19
476,46	31305,25
476,66	31152,51
476,86	31472,45
477,07	31913,70
477,27	32749,19
477,48	32714,05
477,68	32987,62
477,88	33609,95
478,09	33204,09
478,29	33575,30
478,50	33565,02
478,70	33424,73
478,90	33622,94
479,11	34109,08
479,31	34635,00
479,51	34801,26
479,72	34606,00
479,92	34927,82
480,12	34773,28
480,33	35141,18
480,53	35090,76
480,74	35377,76
480,94	35600,21
481,14	36083,57
481,35	36369,80
481,55	36427,26
481,75	36612,32
481,96	36629,15
482,16	36572,13
482,36	36954,08
482,57	37081,67
482,77	36617,31
482,97	37234,20
483,18	37009,13
483,38	36852,83
483,58	37045,83
483,79	36805,77
483,99	36946,42
484,19	36983,08
484,40	36970,26
484,60	36624,48
484,80	37020,07
485,01	36634,52
485,21	35766,34
485,41	34708,07
485,62	34180,56
485,82	33273,80
486,02	32853,19
486,23	32601,53
486,43	32777,04
486,63	33225,38
486,84	33739,92
487,04	34018,03
487,24	34912,17
487,45	35142,32
487,65	36338,01
487,85	36285,42
488,06	36838,49
488,26	36690,30
488,46	36900,63
488,67	36985,82
488,87	37176,45
489,07	37563,39
489,27	38054,04
489,48	38534,58
489,68	38565,05
489,88	39223,64
490,09	39455,02
490,29	39242,40
490,49	39417,21
490,70	39440,11
490,90	39257,35
491,10	38790,99
491,30	38893,30
491,51	38120,03
491,71	38309,51
491,91	37697,41
492,12	37908,15
492,32	37803,58
492,52	38336,25
492,72	38331,34
492,93	38664,54
493,13	38442,01
493,33	38634,89
493,53	38645,99
493,74	38888,76
493,94	39429,87
494,14	39248,71
494,34	39627,09
494,55	39864,49
494,75	40035,50
494,95	40005,64
495,16	39981,59
495,36	39752,38
495,56	39502,33
495,76	39477,34
495,97	39476,65
496,17	39538,25
496,37	39415,41
496,57	39736,08
496,78	39760,99
496,98	39605,18
497,18	39587,07
497,38	39301,59
497,59	39253,74
497,79	38365,34
497,99	38372,14
498,19	37957,91
498,39	38163,98
498,60	38018,61
498,80	38176,35
499,00	37909,74
499,20	38137,48
499,41	38180,61
499,61	37666,73
499,81	37683,40
500,01	37210,77
500,22	37065,37
500,42	36766,90
500,62	36364,55
500,82	36377,62
501,02	35938,49
501,23	35725,01
501,43	35406,27
501,63	35322,14
501,83	35537,99
502,03	35119,14
502,24	35628,64
502,44	35610,53
502,64	35742,30
502,84	35806,77
503,05	35879,68
503,25	35845,27
503,45	35540,70
503,65	35361,99
503,85	35038,16
504,06	34929,83
504,26	34899,39
504,46	35335,12
504,66	35151,54
504,86	35598,57
505,06	35565,48
505,27	35636,58
505,47	36161,68
505,67	36312,82
505,87	36348,09
506,07	36425,54
506,28	36536,21
506,48	36193,22
506,68	36280,42
506,88	35955,53
507,08	35809,14
507,28	35602,26
507,49	35524,76
507,69	35330,74
507,89	34861,63
508,09	35335,61
508,29	35128,81
508,49	35365,55
508,70	35634,04
508,90	35868,25
509,10	35786,49
509,30	35541,15
509,50	35689,58
509,70	35536,72
509,91	35369,85
510,11	35614,46
510,31	35474,26
510,51	35386,73
510,71	35578,83
510,91	35534,96
511,11	35776,29
511,32	35858,58
511,52	35653,17
511,72	35953,28
511,92	35753,64
512,12	35612,05
512,32	35179,31
512,52	35139,74
512,73	35142,49
512,93	34856,88
513,13	34662,85
513,33	34732,16
513,53	34502,87
513,73	34421,19
513,93	33988,38
514,13	33910,68
514,34	34025,53
514,54	33969,37
514,74	34127,43
514,94	34250,39
515,14	34177,73
515,34	34370,08
515,54	34359,55
515,74	34234,50
515,94	33600,98
516,15	33212,15
516,35	32481,81
516,55	31652,67
516,75	31050,52
516,95	30777,28
517,15	30607,22
517,35	30544,96
517,55	30671,57
517,75	30951,77
517,95	30747,63
518,16	30856,70
518,36	30876,20
518,56	31013,21
518,76	31358,58
518,96	31791,36
519,16	32087,78
519,36	32474,97
519,56	32541,73
519,76	32965,58
519,96	32975,20
520,16	33347,16
520,37	33246,89
520,57	33478,64
520,77	33567,76
520,97	33686,75
521,17	33630,72
521,37	33952,29
521,57	33925,79
521,77	33790,05
521,97	33722,14
522,17	33445,79
522,37	33575,51
522,57	33082,89
522,77	33144,94
522,97	33126,02
523,17	33146,95
523,37	33208,71
523,58	33454,76
523,78	33811,64
523,98	34092,54
524,18	33718,37
524,38	34144,47
524,58	33985,39
524,78	33843,13
524,98	34101,59
525,18	33677,94
525,38	33647,02
525,58	33316,15
525,78	33231,41
525,98	32615,70
526,18	31931,36
526,38	31310,00
526,58	30940,14
526,78	30482,50
526,98	30533,29
527,18	30410,62
527,38	30831,51
527,58	30936,41
527,78	31296,28
527,98	31574,39
528,18	31698,54
528,38	32046,21
528,58	32344,51
528,78	32796,01
528,98	32703,52
529,18	32750,50
529,38	32807,15
529,58	32503,23
529,78	32547,26
529,98	32230,32
530,18	32629,51
530,38	32486,72
530,58	32674,19
530,78	32859,25
530,98	32594,98
531,18	32741,12
531,38	32638,72
531,58	32648,23
531,78	32135,54
531,98	31834,28
532,18	31508,53
532,38	31228,86
532,58	30770,85
532,78	30645,48
532,98	30791,99
533,18	30667,19
533,38	30597,27
533,58	31027,71
533,78	30760,08
533,98	30921,99
534,18	30784,25
534,38	30830,20
534,58	31175,53
534,78	31058,18
534,98	31348,50
535,18	31428,99
535,38	31698,26
535,58	31675,15
535,78	31681,38
535,98	31588,65
536,18	31503,41
536,38	30945,75
536,58	31046,80
536,78	30434,99
536,98	30333,73
537,18	30694,14
537,38	30484,38
537,58	30418,81
537,78	30685,82
537,98	30579,78
538,17	30524,89
538,37	30315,30
538,57	30513,18
538,77	30233,10
538,97	30112,80
539,17	30015,36
539,37	29700,87
539,57	29457,33
539,77	29322,24
539,97	29012,55
540,17	28770,32
540,37	28572,52
540,57	28380,63
540,77	28473,40
540,97	28359,12
541,16	28419,29
541,36	28591,28
541,56	28528,00
541,76	28537,42
541,96	28842,61
542,16	28403,77
542,36	28582,43
542,56	28376,45
542,76	28494,04
542,96	28425,07
543,16	28253,57
543,36	28378,83
543,55	28319,80
543,75	28545,86
543,95	28504,16
544,15	28457,39
544,35	28213,92
544,55	28391,03
544,75	28310,22
544,95	28400,49
545,15	28031,65
545,35	28107,10
545,54	28019,45
545,74	28081,34
545,94	27788,07
546,14	27981,68
546,34	27954,36
546,54	27714,10
546,74	27706,93
546,94	27583,68
547,14	27396,58
547,33	27255,19
547,53	26935,50
547,73	27027,37
547,93	27010,86
548,13	26823,39
548,33	26901,22
548,53	27034,87
548,72	26838,96
548,92	27071,69
549,12	27059,36
549,32	26839,57
549,52	26910,02
549,72	26834,53
549,92	26864,39
550,12	26593,28
550,31	26864,97
550,51	26302,43
550,71	26576,16
550,91	26515,01
551,11	26353,06
551,31	26454,92
551,50	26297,27
551,70	26286,91
551,90	26493,18
552,10	26326,68
552,30	26171,73
552,50	25973,36
552,70	25962,26
552,89	25886,94
553,09	25871,13
553,29	25823,29
553,49	25781,22
553,69	25996,75
553,88	25766,11
554,08	25691,89
554,28	25756,16
554,48	25699,84
554,68	25670,84
554,88	25681,90
555,07	25672,84
555,27	25559,96
555,47	25536,16
555,67	25429,71
555,87	25495,20
556,06	25066,65
556,26	25120,51
556,46	24972,19
556,66	24746,63
556,86	24493,99
557,06	24443,24
557,25	24345,39
557,45	24193,31
557,65	24351,09
557,85	24280,39
558,05	24024,03
558,24	23970,82
558,44	23720,43
558,64	23695,82
558,84	23356,67
559,03	23284,63
559,23	23233,39
559,43	23278,77
559,63	23150,07
559,83	23081,02
560,02	23065,21
560,22	23259,60
560,42	23418,85
560,62	23437,04
560,82	23268,82
561,01	23288,07
561,21	23122,96
561,41	23225,11
561,61	23018,35
561,80	22907,31
562,00	22901,45
562,20	22889,86
562,40	23032,07
562,59	22860,90
562,79	22807,16
562,99	22816,67
563,19	22818,10
563,38	22608,26
563,58	22607,16
563,78	22552,31
563,98	22500,87
564,17	22380,98
564,37	22393,31
564,57	22380,65
564,77	22274,94
564,96	22220,01
565,16	22017,83
565,36	21980,03
565,56	21737,88
565,75	21632,08
565,95	21545,37
566,15	21572,85
566,35	21621,31
566,54	21551,51
566,74	21719,40
566,94	21696,18
567,14	21608,32
567,33	21643,83
567,53	21565,44
567,73	21504,08
567,92	21376,49
568,12	21303,75
568,32	21085,31
568,52	21007,33
568,71	20784,43
568,91	20893,05
569,11	20914,76
569,30	20631,81
569,50	20730,44
569,70	20541,45
569,90	20423,29
570,09	20393,14
570,29	20226,52
570,49	20174,42
570,68	19935,54
570,88	19754,42
571,08	19859,93
571,27	19822,00
571,47	19837,28
571,67	19934,93
571,87	20093,73
572,06	19924,28
572,26	20151,81
572,46	20021,11
572,65	20096,59
572,85	20031,96
573,05	20218,94
573,24	20025,33
573,44	19937,84
573,64	20052,48
573,83	20026,23
574,03	19863,37
574,23	19989,69
574,42	19780,35
574,62	19737,79
574,82	19604,84
575,01	19390,13
575,21	19394,14
575,41	19425,64
575,60	19199,91
575,80	19181,40
576,00	19244,15
576,19	19260,37
576,39	19106,36
576,59	19298,30
576,78	19218,59
576,98	19219,12
577,18	19265,45
577,37	19197,13
577,57	19138,51
577,77	19063,97
577,96	18881,37
578,16	18928,39
578,35	18823,82
578,55	18656,01
578,75	18814,69
578,94	18634,02
579,14	18882,72
579,34	18889,48
579,53	18932,57
579,73	18981,48
579,93	18977,75
580,12	19089,16
580,32	19049,43
580,51	19137,86
580,71	19160,39
580,91	19093,34
581,10	19225,63
581,30	19279,21
581,50	19315,50
581,69	19269,87
581,89	19325,29
582,08	19487,08
582,28	19361,41
582,48	19565,88
582,67	19430,47
582,87	19510,71
583,06	19476,10
583,26	19525,33
583,46	19522,26
583,65	19371,70
583,85	19527,01
584,04	19446,61
584,24	19306,49
584,44	19357,69
584,63	19333,32
584,83	19203,68
585,02	19048,53
585,22	19010,84
585,42	18912,95
585,61	18680,87
585,81	18661,79
586,00	18689,19
586,20	18660,31
586,39	18575,81
586,59	18609,69
586,79	18779,71
586,98	18458,71
587,18	18583,96
587,37	18582,33
587,57	18319,57
587,76	18194,85
587,96	18126,00
588,16	17857,30
588,35	17510,21
588,55	17153,83
588,74	16930,56
588,94	16499,75
589,13	16259,48
589,33	16086,10
589,52	16000,41
589,72	16017,86
589,92	16174,49
590,11	16298,60
590,31	16340,99
590,50	16482,22
590,70	16573,11
590,89	16688,00
591,09	16658,92
591,28	16688,00
591,48	16678,58
591,67	16621,23
591,87	16730,39
592,06	16603,25
592,26	16565,12
592,46	16614,84
592,65	16609,56
592,85	16547,63
593,04	16751,03
593,24	16568,15
593,43	16474,56
593,63	16509,37
593,82	16433,47
594,02	16195,91
594,21	16279,18
594,41	16033,26
594,60	16029,49
594,80	15999,96
594,99	15909,40
595,19	15852,63
595,38	16039,04
595,58	15972,15
595,77	15928,24
595,97	15956,26
596,16	15968,18
596,36	15899,81
596,55	15944,62
596,75	15922,59
596,94	15842,92
597,14	15832,40
597,33	15731,80
597,53	15695,39
597,72	15692,85
597,92	15593,48
598,11	15493,42
598,31	15500,54
598,50	15387,82
598,70	15332,36
598,89	15284,24
599,09	15144,61
599,28	15262,04
599,48	15161,36
599,67	15173,44
599,87	15086,08
600,06	15118,27
600,26	14985,44
600,45	14941,65
600,64	14997,32
600,84	14855,31
601,03	14913,68
601,23	14776,63
601,42	14738,99
601,62	14581,09
601,81	14614,35
602,01	14589,32
602,20	14590,10
602,40	14536,11
602,59	14474,22
602,78	14647,56
602,98	14558,72
603,17	14679,96
603,37	14651,86
603,56	14639,41
603,76	14684,96
603,95	14646,62
604,15	14549,43
604,34	14618,65
604,53	14505,76
604,73	14582,19
604,92	14519,98
605,12	14508,75
605,31	14449,73
605,51	14443,83
605,70	14359,41
605,89	14341,27
606,09	14270,21
606,28	14219,29
606,48	14257,88
606,67	14162,56
606,87	14262,83
607,06	14203,40
607,25	14070,82
607,45	14154,25
607,64	14021,58
607,84	14036,16
608,03	13869,21
608,22	13956,58
608,42	13881,13
608,61	13826,37
608,81	13770,17
609,00	13756,94
609,19	13668,27
609,39	13672,98
609,58	13635,83
609,78	13591,55
609,97	13463,26
610,16	13444,42
610,36	13474,98
610,55	13408,91
610,75	13429,35
610,94	13434,76
611,13	13454,87
611,33	13473,67
611,52	13444,71
611,71	13245,73
611,91	13335,96
612,10	13320,77
612,30	13222,01
612,49	13265,80
612,68	13325,52
612,88	13218,78
613,07	13177,86
613,26	13153,04
613,46	13121,01
613,65	13055,27
613,84	13132,31
614,04	13037,00
614,23	12983,96
614,43	13165,61
614,62	13086,97
614,81	13133,25
615,01	13125,84
615,20	13131,08
615,39	13040,73
615,59	12941,03
615,78	12853,99
615,97	12750,12
616,17	12788,91
616,36	12724,60
616,55	12768,23
616,75	12823,97
616,94	12719,89
617,13	12763,97
617,33	12815,37
617,52	12904,25
617,71	12861,65
617,91	13045,56
618,10	12962,95
618,29	13027,13
618,49	13018,53
618,68	13021,68
618,87	13006,44
619,07	13066,16
619,26	13057,11
619,45	13124,41
619,65	13079,02
619,84	13106,71
620,03	13191,05
620,22	13280,09
620,42	13092,21
620,61	13215,75
620,80	13260,52
621,00	13128,01
621,19	13123,10
621,38	13119,25
621,58	13111,26
621,77	13026,72
621,96	13055,27
622,15	13016,48
622,35	12934,97
622,54	12917,60
622,73	13017,38
622,93	12902,29
623,12	12832,74
623,31	12833,80
623,50	12804,88
623,70	12806,11
623,89	12766,14
624,08	12617,21
624,28	12732,26
624,47	12688,93
624,66	12606,80
624,85	12601,11
625,05	12563,10
625,24	12530,95
625,43	12573,55
625,62	12460,74
625,82	12487,69
626,01	12545,65
626,20	12596,03
626,39	12537,95
626,59	12608,16
626,78	12566,30
626,97	12525,66
627,17	12387,43
627,36	12211,96
627,55	12001,59
627,74	11973,90
627,93	11867,12
628,13	11823,37
628,32	11815,18
628,51	11845,00
628,70	11896,98
628,90	11873,22
629,09	11882,03
629,28	11833,00
629,47	11818,87
629,67	11779,47
629,86	11850,78
630,05	11839,43
630,24	11904,76
630,44	11880,72
630,63	11950,63
630,82	11897,35
631,01	11963,46
631,20	11807,20
631,40	11897,76
631,59	11893,29
631,78	11802,89
631,97	11854,95
632,16	11920,00
632,36	11981,93
632,55	12033,50
632,74	12098,83
632,93	12052,26
633,13	11980,66
633,32	12051,15
633,51	12025,30
633,70	11994,17
633,89	12028,33
634,09	11967,63
634,28	12028,54
634,47	12054,88
634,66	12058,44
634,85	12021,95
635,04	12072,45
635,24	12017,32
635,43	12045,33
635,62	12017,81
635,81	11951,17
636,00	11950,68
636,20	12014,78
636,39	11993,85
636,58	11927,21
636,77	11929,13
636,96	12010,44
637,15	12023,95
637,35	12018,55
637,54	11992,54
637,73	12035,26
637,92	12028,33
638,11	12013,75
638,30	12034,72
638,50	12009,62
638,69	12055,29
638,88	11923,97
639,07	11857,29
639,26	11939,82
639,45	11753,29
639,64	11764,60
639,84	11799,78
640,03	11646,68
640,22	11688,37
640,41	11707,79
640,60	11522,20
640,79	11560,78
640,98	11525,11
641,18	11475,92
641,37	11497,91
641,56	11435,73
641,75	11448,02
641,94	11382,53
642,13	11435,00
642,32	11396,25
642,52	11468,71
642,71	11427,75
642,90	11398,17
643,09	11378,06
643,28	11396,70
643,47	11310,85
643,66	11373,19
643,85	11256,00
644,04	11326,66
644,24	11266,49
644,43	11234,99
644,62	11199,77
644,81	11166,39
645,00	11082,09
645,19	11110,64
645,38	11004,51
645,57	10964,25
645,76	10886,63
645,96	10855,30
646,15	10798,78
646,34	10787,35
646,53	10643,05
646,72	10694,53
646,91	10560,35
647,10	10411,26
647,29	10477,53
647,48	10490,68
647,67	10347,77
647,86	10308,78
648,05	10304,97
648,25	10220,31
648,44	10194,62
648,63	10172,02
648,82	10101,65
649,01	10086,82
649,20	10030,79
649,39	9925,23
649,58	9944,08
649,77	9969,39
649,96	10013,58
650,15	10047,29
650,34	10097,35
650,53	10121,96
650,72	10085,75
650,91	10079,77
651,11	10102,59
651,30	9974,71
651,49	9977,58
651,68	9923,51
651,87	9842,66
652,06	9902,99
652,25	9915,73
652,44	9933,22
652,63	9938,30
652,82	9911,14
653,01	9936,70
653,20	9901,15
653,39	9880,92
653,58	9872,15
653,77	9829,39
653,96	9781,22
654,15	9786,26
654,34	9734,45
654,53	9656,99
654,72	9557,83
654,91	9478,33
655,10	9362,58
655,29	9202,55
655,48	9014,22
655,67	8753,63
655,86	8631,16
656,05	8396,75
656,24	8269,98
656,43	8284,24
656,62	8289,52
656,81	8361,53
657,00	8462,41
657,19	8541,38
657,38	8674,38
657,57	8781,40
657,76	8795,41
657,95	8923,37
658,14	8990,54
658,33	9018,60
658,52	9038,87
658,71	9090,07
658,90	9070,58
659,09	9135,70
659,28	9110,96
659,47	9195,91
659,66	9200,25
659,85	9170,68
660,04	9174,53
660,23	9182,89
660,42	9110,76
660,61	9203,69
660,80	9094,54
660,99	9112,03
661,18	9177,77
661,37	9162,78
661,56	9146,15
661,75	9180,35
661,94	9206,32
662,13	9214,22
662,32	9116,78
662,51	9068,16
662,70	9092,57
662,89	9050,47
663,08	8994,06
663,27	8972,97
663,46	8891,79
663,65	8891,34
663,83	8815,85
664,02	8860,45
664,21	8852,67
664,40	8867,38
664,59	8865,78
664,78	8858,73
664,97	8887,24
665,16	8748,51
665,35	8806,55
665,54	8749,54
665,73	8813,88
665,92	8755,48
666,11	8713,37
666,30	8717,38
666,49	8662,58
666,67	8635,79
666,86	8581,56
667,05	8594,92
667,24	8593,28
667,43	8577,06
667,62	8561,62
667,81	8445,45
668,00	8538,72
668,19	8434,23
668,38	8458,77
668,57	8530,08
668,76	8471,10
668,94	8432,14
669,13	8365,01
669,32	8395,36
669,51	8364,19
669,70	8359,64
669,89	8406,99
670,08	8287,60
670,27	8306,81
670,46	8342,61
670,64	8222,47
670,83	8242,87
671,02	8213,62
671,21	8186,67
671,40	8123,27
671,59	8097,59
671,78	8067,97
671,97	8089,07
672,16	8039,14
672,34	8034,39
672,53	8049,38
672,72	8005,76
672,91	8002,93
673,10	7982,86
673,29	7997,81
673,48	8023,82
673,66	7920,93
673,85	7959,27
674,04	7872,80
674,23	7869,07
674,42	7893,12
674,61	7882,96
674,80	7804,44
674,98	7851,79
675,17	7775,11
675,36	7740,63
675,55	7812,39
675,74	7833,19
675,93	7737,68
676,12	7797,40
676,30	7746,48
676,49	7757,05
676,68	7704,05
676,87	7685,86
677,06	7661,70
677,25	7671,24
677,43	7688,12
677,62	7648,39
677,81	7592,11
678,00	7557,66
678,19	7608,65
678,37	7582,89
678,56	7552,95
678,75	7624,87
678,94	7477,13
679,13	7530,01
679,32	7521,70
679,50	7435,60
679,69	7460,59
679,88	7416,72
680,07	7426,47
680,26	7398,33
680,44	7339,72
680,63	7387,97
680,82	7314,69
681,01	7344,10
681,20	7316,86
681,38	7301,95
681,57	7274,67
681,76	7303,26
681,95	7211,92
682,14	7251,61
682,32	7222,41
682,51	7212,66
682,70	7191,24
682,89	7175,96
683,07	7147,08
683,26	7113,58
683,45	7095,52
683,64	7038,05
683,83	7025,84
684,01	6983,98
684,20	6985,01
684,39	6935,41
684,58	6949,09
684,76	6920,13
684,95	6900,22
685,14	6928,73
685,33	6811,75
685,52	6819,24
685,70	6739,33
685,89	6645,54
686,08	6467,53
686,27	6295,13
686,45	5938,62
686,64	5566,30
686,83	5289,08
687,02	4996,88
687,20	4844,14
687,39	4701,03
687,58	4722,86
687,76	4755,67
687,95	4760,67
688,14	4832,55
688,33	4804,37
688,51	4897,35
688,70	4846,64
688,89	4839,10
689,08	4816,17
689,26	4845,21
689,45	4882,89
689,64	4901,49
689,83	4977,92
690,01	5037,02
690,20	5057,83
690,39	5154,33
690,57	5157,15
690,76	5251,24
690,95	5284,17
691,14	5377,15
691,32	5442,80
691,51	5433,63
691,70	5455,26
691,88	5554,42
692,07	5578,54
692,26	5595,67
692,44	5613,24
692,63	5605,17
692,82	5563,96
693,01	5593,58
693,19	5583,58
693,38	5564,70
693,57	5562,37
693,75	5549,79
693,94	5499,16
694,13	5539,02
694,31	5504,57
694,50	5539,55
694,69	5466,07
694,87	5535,82
695,06	5503,83
695,25	5568,75
695,43	5578,09
695,62	5548,48
695,81	5550,04
695,99	5604,27
696,18	5646,21
696,37	5694,62
696,55	5740,13
696,74	5735,71
696,93	5770,52
697,11	5770,48
697,30	5721,82
697,49	5777,52
697,67	5699,17
697,86	5728,05
698,05	5691,43
698,23	5646,58
698,42	5631,18
698,61	5600,29
698,79	5572,85
698,98	5540,82
699,17	5499,45
699,35	5483,52
699,54	5431,62
699,72	5416,39
699,91	5404,26
700,10	5333,48
700,28	5311,28
700,47	5319,03
700,66	5311,00
700,84	5305,96
701,03	5244,85
701,21	5273,93
701,40	5232,27
701,59	5204,50
701,77	5212,12
701,96	5208,84
702,15	5185,42
702,33	5185,87
702,52	5206,02
702,70	5209,70
702,89	5163,13
703,08	5223,71
703,26	5221,71
703,45	5235,71
703,63	5285,60
703,82	5288,26
704,01	5245,63
704,19	5244,15
704,38	5247,96
704,56	5305,43
704,75	5248,74
704,94	5234,40
705,12	5209,01
705,31	5231,21
705,49	5204,05
705,68	5183,65
705,86	5212,37
706,05	5152,69
706,24	5185,25
706,42	5165,67
706,61	5143,06
706,79	5155,80
706,98	5139,58
707,17	5147,57
707,35	5163,42
707,54	5116,24
707,72	5145,07
707,91	5057,29
708,09	5105,63
708,28	5112,71
708,46	5093,42
708,65	5075,73
708,84	5063,85
709,02	5033,46
709,21	5064,54
709,39	5031,37
709,58	4998,93
709,76	5048,94
709,95	5016,54
710,13	5017,28
710,32	4967,18
710,50	5020,64
710,69	4941,63
710,88	4965,14
711,06	4923,93
711,25	4955,76
711,43	4920,16
711,62	4939,25
711,80	4888,71
711,99	4855,04
712,17	4862,33
712,36	4849,67
712,54	4834,27
712,73	4824,28
712,91	4793,27
713,10	4766,07
713,28	4796,26
713,47	4764,85
713,65	4759,85
713,84	4710,16
714,02	4709,30
714,21	4677,19
714,39	4679,24
714,58	4629,84
714,76	4595,97
714,95	4546,61
715,13	4578,36
715,32	4535,23
715,50	4464,33
715,69	4519,29
715,87	4378,84
716,06	4326,78
716,24	4282,34
716,43	4104,01
716,61	4049,57
716,80	3957,29
716,98	3832,20
717,17	3741,07
717,35	3637,19
717,54	3600,62
717,72	3524,02
717,91	3459,51
718,09	3401,68
718,28	3318,49
718,46	3303,54
718,65	3250,58
718,83	3176,28
719,01	3116,68
719,20	3100,46
719,38	3096,41
719,57	3043,90
719,75	3036,81
719,94	3060,28
720,12	3015,47
720,31	3078,55
720,49	3095,38
720,68	3172,84
720,86	3250,41
721,04	3334,09
721,23	3394,59
721,41	3458,90
721,60	3521,40
721,78	3521,32
721,97	3582,96
722,15	3558,47
722,34	3554,66
722,52	3541,39
722,70	3527,30
722,89	3496,42
723,07	3380,66
723,26	3357,93
723,44	3303,09
723,63	3249,14
723,81	3205,03
723,99	3196,02
724,18	3169,60
724,36	3142,53
724,55	3144,82
724,73	3118,56
724,91	3105,95
725,10	3071,99
725,28	3098,21
725,47	3065,19
725,65	3043,32
725,83	3078,71
726,02	3065,77
726,20	3045,90
726,39	3073,39
726,57	3064,66
726,75	3056,14
726,94	3061,88
727,12	3045,12
727,31	2984,22
727,49	2995,32
727,67	2984,46
727,86	2963,49
728,04	2990,85
728,23	2985,28
728,41	3004,49
728,59	2993,19
728,78	2938,79
728,96	2963,86
729,14	2929,50
729,33	2981,51
729,51	2931,50
729,69	2969,19
729,88	2952,35
730,06	2962,84
730,25	2965,05
730,43	2955,14
730,61	2945,10
730,80	2933,84
730,98	2953,17
731,16	2972,18
731,35	2952,15
731,53	2983,52
731,71	2993,07
731,90	3036,56
732,08	3067,28
732,26	3066,22
732,45	3100,95
732,63	3153,91
732,81	3116,44
733,00	3168,04
733,18	3178,82
733,36	3178,20
733,55	3196,63
733,73	3227,80
733,91	3242,59
734,10	3223,91
734,28	3244,64
734,46	3257,25
734,65	3210,11
734,83	3229,32
735,01	3219,65
735,20	3203,02
735,38	3183,94
735,56	3184,02
735,75	3156,17
735,93	3143,39
736,11	3143,51
736,30	3129,83
736,48	3120,20
736,66	3124,75
736,84	3132,08
737,03	3105,29
737,21	3136,22
737,39	3145,07
737,58	3124,18
737,76	3121,76
737,94	3098,45
738,12	3115,12
738,31	3066,46
738,49	3061,14
738,67	3058,48
738,86	3023,50
739,04	3034,52
739,22	3048,24
739,40	3051,92
739,59	3051,35
739,77	3038,00
739,95	3046,31
740,14	3031,12
740,32	3030,63
740,50	2995,97
740,68	3023,21
740,87	3001,87
741,05	2983,11
741,23	2955,30
741,41	2973,32
741,60	2956,98
741,78	2979,92
741,96	2922,12
742,14	2953,95
742,33	2962,96
742,51	2962,88
742,69	2947,64
742,87	2935,03
743,06	2952,02
743,24	2952,39
743,42	2960,75
743,60	2949,32
743,79	2912,33
743,97	2895,75
744,15	2899,64
744,33	2886,78
744,52	2875,31
744,70	2879,69
744,88	2841,88
745,06	2877,07
745,24	2879,36
745,43	2842,29
745,61	2852,74
745,79	2819,15
745,97	2832,87
746,16	2806,41
746,34	2813,66
746,52	2803,26
746,70	2794,37
746,88	2774,18
747,07	2786,55
747,25	2748,70
747,43	2746,53
747,61	2751,73
747,79	2744,69
747,98	2730,43
748,16	2700,98
748,34	2723,84
748,52	2704,71
748,70	2693,12
748,89	2692,67
749,07	2634,71
749,25	2677,88
749,43	2645,40
749,61	2636,35
749,79	2670,35
749,98	2627,79
750,16	2642,37
750,34	2609,81
750,52	2641,51
750,70	2621,93
750,88	2611,41
751,07	2600,47
751,25	2611,73
751,43	2599,73
751,61	2599,90
751,79	2611,08
751,97	2595,88
752,16	2591,95
752,34	2587,69
752,52	2565,24
752,70	2594,33
752,88	2585,44
753,06	2568,64
753,25	2561,60
753,43	2583,72
753,61	2569,26
753,79	2597,48
753,97	2566,88
754,15	2576,96
754,33	2541,04
754,52	2565,57
754,70	2581,59
754,88	2570,57
755,06	2555,33
755,24	2563,32
755,42	2540,96
755,60	2561,23
755,78	2545,79
755,97	2544,60
756,15	2542,18
756,33	2549,35
756,51	2542,80
756,69	2534,48
756,87	2523,47
757,05	2543,09
757,23	2516,83
757,41	2526,82
757,60	2536,74
757,78	2492,09
757,96	2504,42
758,14	2487,18
758,32	2451,79
758,50	2411,07
758,68	2341,52
758,86	2230,81
759,04	2076,03
759,22	1882,90
759,41	1682,98
759,59	1456,88
759,77	1232,59
759,95	1062,12
760,13	905,08
760,31	793,22
760,49	709,83
760,67	650,68
760,85	647,94
761,03	624,26
761,21	679,52
761,39	697,25
761,57	731,58
761,76	756,72
761,94	770,73
762,12	762,70
762,30	710,52
762,48	671,77
762,66	628,28
762,84	590,27
763,02	575,52
763,20	580,39
763,38	569,83
763,56	608,94
763,74	630,28
763,92	676,20
764,10	690,90
764,28	770,77
764,46	829,67
764,64	868,83
764,82	919,99
765,00	994,66
765,19	1057,37
765,37	1121,80
765,55	1175,82
765,73	1238,69
765,91	1289,11
766,09	1367,14
766,27	1436,90
766,45	1491,70
766,63	1565,26
766,81	1642,14
766,99	1691,75
767,17	1746,96
767,35	1815,93
767,53	1862,83
767,71	1905,63
767,89	1919,11
768,07	1973,79
768,25	1996,40
768,43	2030,32
768,61	2067,51
768,79	2075,66
768,97	2107,97
769,15	2104,53
769,33	2128,33
769,51	2124,28
769,69	2153,07
769,87	2130,83
770,05	2171,75
770,23	2163,19
770,41	2184,08
770,59	2180,60
770,77	2196,32
770,95	2170,19
771,13	2180,27
771,31	2163,19
771,49	2171,34
771,67	2152,87
771,85	2180,55
772,03	2169,86
772,21	2170,03
772,38	2157,82
772,56	2158,52
772,74	2147,30
772,92	2155,36
773,10	2134,80
773,28	2160,65
773,46	2110,84
773,64	2135,34
773,82	2112,81
774,00	2109,33
774,18	2074,10
774,36	2099,66
774,54	2062,67
774,72	2061,73
774,90	2049,07
775,08	2051,04
775,26	2033,55
775,44	2061,12
775,62	2027,49
775,80	2043,22
775,97	2014,63
776,15	2056,16
776,33	2025,36
776,51	2009,71
776,69	2008,61
776,87	1985,71
777,05	1977,56
777,23	1983,62
777,41	1962,77
777,59	1956,22
777,77	1942,95
777,95	1938,36
778,13	1926,57
778,30	1926,48
778,48	1896,87
778,66	1910,02
778,84	1885,81
779,02	1887,12
779,20	1871,39
779,38	1856,44
779,56	1841,00
779,74	1865,74
779,92	1825,44
780,09	1840,71
780,27	1828,06
780,45	1807,58
780,63	1802,34
780,81	1812,74
780,99	1781,32
781,17	1804,92
781,35	1782,27
781,52	1794,72
781,70	1776,29
781,88	1751,79
782,06	1766,58
782,24	1760,72
782,42	1749,05
782,60	1718,94
782,78	1725,70
782,95	1695,51
783,13	1691,58
783,31	1699,53
783,49	1678,72
783,67	1696,54
783,85	1667,99
784,03	1662,99
784,20	1667,70
784,38	1675,61
784,56	1646,28
784,74	1624,08
784,92	1631,21
785,10	1628,59
785,28	1618,35
785,45	1628,30
785,63	1593,16
785,81	1600,98
785,99	1596,02
786,17	1590,66
786,35	1566,74
786,52	1562,68
786,70	1547,65
786,88	1556,37
787,06	1546,09
787,24	1519,39
787,41	1518,69
787,59	1498,17
787,77	1497,02
787,95	1491,62
788,13	1477,20
788,31	1482,03
788,48	1441,77
788,66	1450,17
788,84	1432,10
789,02	1435,38
789,20	1431,33
789,37	1414,61
789,55	1394,75
789,73	1393,03
789,91	1361,82
790,09	1378,00
790,26	1396,80
790,44	1366,32
790,62	1368,37
790,80	1360,47
790,98	1357,68
791,15	1329,58
791,33	1321,14
791,51	1331,75
791,69	1316,48
791,86	1311,93
792,04	1290,67
792,22	1312,09
792,40	1292,35
792,58	1288,91
792,75	1272,65
792,93	1254,46
793,11	1290,14
793,29	1270,85
793,46	1261,51
793,64	1248,40
793,82	1250,86
794,00	1250,33
794,17	1246,43
794,35	1229,23
794,53	1219,57
794,71	1247,99
794,88	1247,62
795,06	1223,78
795,24	1200,68
795,42	1196,46
795,59	1192,82
795,77	1189,67
795,95	1188,15
796,13	1181,80
796,30	1160,91
796,48	1164,72
796,66	1159,19
796,83	1155,96
797,01	1165,70
797,19	1164,27
797,37	1156,65
797,54	1149,61
797,72	1147,27
797,90	1157,39
798,08	1146,00
798,25	1140,39
798,43	1132,20
798,61	1131,22
798,78	1106,35
798,96	1105,82
799,14	1110,82
799,31	1096,81
799,49	1083,09
799,67	1064,37
799,85	1073,34
800,02	1072,03
800,20	1067,93
800,38	1048,76
800,55	1038,65
800,73	1064,04
800,91	1046,39
801,08	1051,18
801,26	1037,87
801,44	1042,99
801,61	1027,10
801,79	1002,40
801,97	1010,80
802,15	1013,50
802,32	1006,78
802,50	1007,40
802,68	980,94
802,85	990,56
803,03	983,60
803,21	989,41
803,38	982,08
803,56	976,47
803,74	970,57
803,91	961,36
804,09	955,58
804,26	969,88
804,44	942,97
804,62	944,97
804,79	945,18
804,97	941,45
805,15	944,48
805,32	952,88
805,50	924,21
805,68	950,13
805,85	931,05
806,03	935,72
806,21	930,11
806,38	928,88
806,56	932,24
806,73	927,77
806,91	900,37
807,09	911,47
807,26	916,55
807,44	898,36
807,62	907,74
807,79	901,60
807,97	891,07
808,14	880,18
808,32	885,62
808,50	866,58
808,67	877,80
808,85	873,79
809,02	861,25
809,20	846,51
809,38	837,46
809,55	846,59
809,73	828,89
809,90	817,26
810,08	820,87
810,26	813,82
810,43	798,67
810,61	805,55
810,78	797,32
810,96	784,17
811,14	786,09
811,31	793,83
811,49	771,76
811,66	755,66
811,84	777,49
812,02	754,35
812,19	743,13
812,37	726,66
812,54	721,46
812,72	710,52
812,89	703,76
813,07	683,82
813,25	669,40
813,42	678,37
813,60	654,98
813,77	652,03
813,95	633,35
814,12	642,08
814,30	625,94
814,47	594,48
814,65	597,56
814,83	582,24
815,00	579,37
815,18	570,89
815,35	570,20
815,53	555,98
815,70	559,71
815,88	538,33
816,05	526,45
816,23	540,09
816,40	533,05
816,58	517,89
816,75	534,11
816,93	513,38
817,10	519,65
817,28	513,10
817,46	498,19
817,63	497,04
817,81	488,93
817,98	503,31
818,16	499,58
818,33	506,18
818,51	493,03
818,68	484,43
818,86	492,95
819,03	498,80
819,21	471,97
819,38	490,00
819,56	492,74
819,73	493,64
819,91	493,81
820,08	509,94
820,26	543,04
820,43	525,51
820,61	510,27
820,78	520,59
820,96	529,93
821,13	529,24
821,31	526,66
821,48	502,86
821,66	501,92
821,83	500,93
822,00	487,99
822,18	479,72
822,35	463,29
822,53	438,06
822,70	427,78
822,88	419,10
823,05	432,41
823,23	434,78
823,40	447,44
823,58	454,40
823,75	472,79
823,93	460,34
824,10	454,89
824,28	457,43
824,45	470,46
824,62	492,95
824,80	469,31
824,97	470,75
825,15	475,91
825,32	471,97
825,50	475,78
825,67	483,65
825,85	457,39
826,02	479,02
826,19	465,95
826,37	460,59
826,54	462,64
826,72	459,48
826,89	456,12
827,07	448,05
827,24	436,34
827,41	444,25
827,59	434,66
827,76	444,08
827,94	428,31
828,11	423,93
828,28	448,30
828,46	419,18
828,63	424,95
828,81	421,64
828,98	428,68
829,15	401,16
829,33	414,39
829,50	420,33
829,68	401,69
829,85	411,36
830,02	404,35
830,20	416,52
830,37	412,87
830,55	398,94
830,72	424,38
830,89	393,17
831,07	406,64
831,24	404,60
831,42	407,38
831,59	407,63
831,76	398,90
831,94	415,25
832,11	402,92
832,28	404,68
832,46	398,58
832,63	391,69
832,81	399,52
832,98	396,86
833,15	378,79
833,33	396,94
833,50	388,34
833,67	396,20
833,85	380,88
834,02	384,90
834,19	386,74
834,37	380,64
834,54	403,00
834,71	398,62
834,89	394,48
835,06	397,47
835,23	383,38
835,41	393,70
835,58	389,07
835,75	384,20
835,93	380,39
836,10	381,86
836,27	394,93
836,45	385,06
836,62	386,04
836,79	363,64
836,97	382,31
837,14	378,22
837,31	376,74
837,49	372,36
837,66	363,43
837,83	376,87
838,01	379,24
838,18	383,01
838,35	382,03
838,53	377,40
838,70	375,31
838,87	367,65
839,04	373,92
839,22	365,97
839,39	375,80
839,56	375,93
839,74	378,71
839,91	362,74
840,08	365,32
840,26	371,95
840,43	350,41
840,60	359,58
840,77	360,61
840,95	359,62
841,12	354,46
841,29	358,19
841,46	356,18
841,64	354,05
841,81	349,92
841,98	347,91
842,16	364,58
842,33	356,55
842,50	347,13
842,67	348,89
842,85	337,87
843,02	335,29
843,19	333,78
843,36	323,78
843,54	345,00
843,71	337,46
843,88	317,76
844,05	325,55
844,23	330,91
844,40	327,18
844,57	331,61
844,74	331,69
844,92	318,01
845,09	342,46
845,26	325,34
845,43	318,46
845,61	320,30
845,78	332,92
845,95	324,44
846,12	320,06
846,29	316,62
846,47	309,41
846,64	318,58
846,81	311,82
846,98	321,37
847,16	309,57
847,33	311,58
847,50	299,70
847,67	309,57
847,84	293,68
848,02	298,84
848,19	308,34
848,36	297,45
848,53	291,43
848,70	287,08
848,88	295,44
849,05	280,98
849,22	292,25
849,39	278,28
849,56	277,50
849,74	289,34
849,91	262,71
850,08	256,86
850,25	269,06
850,42	262,26
850,60	269,80
850,77	262,63
850,94	271,60
851,11	267,92
851,28	262,75
851,45	264,88
851,63	251,16
851,80	272,58
851,97	260,21
852,14	254,89
852,31	247,03
852,48	274,10
852,66	249,20
852,83	258,90
853,00	256,65
853,17	247,56
853,34	242,03
853,51	241,54
853,68	238,88
853,86	227,57
854,03	209,22
854,20	228,18
854,37	216,06
854,54	222,20
854,71	226,01
854,88	217,90
855,06	231,83
855,23	211,19
855,40	229,95
855,57	222,98
855,74	219,91
855,91	228,59
856,08	214,87
856,25	218,35
856,43	220,36
856,60	220,73
856,77	224,62
856,94	238,10
857,11	231,67
857,28	232,69
857,45	206,72
857,62	228,96
857,79	220,20
857,97	215,32
858,14	218,44
858,31	198,73
858,48	214,46
858,65	196,89
858,82	221,63
858,99	214,83
859,16	221,22
859,33	208,65
859,50	211,35
859,67	213,97
859,85	225,28
860,02	207,09
860,19	210,86
860,36	195,70
860,53	206,84
860,70	204,14
860,87	213,19
861,04	212,33
861,21	208,16
861,38	197,30
861,55	196,03
861,72	200,91
861,89	193,70
862,06	199,88
862,23	192,35
862,41	187,18
862,58	194,52
862,75	197,10
862,92	193,25
863,09	196,69
863,26	193,29
863,43	191,24
863,60	197,87
863,77	185,79
863,94	196,52
864,11	188,70
864,28	183,99
864,45	184,28
864,62	181,20
864,79	182,23
864,96	178,83
865,13	167,85
865,30	173,26
865,47	182,92
865,64	170,76
865,81	164,00
865,98	166,30
866,15	164,66
866,32	150,94
866,49	151,67
866,66	149,79
866,83	149,91
867,00	148,76
867,17	155,28
867,34	163,76
867,51	140,90
867,68	151,63
867,85	148,93
868,02	147,49
868,19	148,07
868,36	143,89
868,53	139,22
868,70	145,20
868,87	150,65
869,04	143,15
869,21	149,22
869,38	149,13
869,55	158,92
869,72	153,07
869,89	146,55
870,06	154,33
870,23	147,62
870,40	144,67
870,57	161,67
870,74	149,67
870,91	145,65
871,08	149,83
871,25	146,80
871,42	150,98
871,59	144,63
871,76	139,30
871,93	140,70
872,10	141,31
872,27	146,55
872,44	147,49
872,60	134,55
872,77	126,65
872,94	140,70
873,11	146,92
873,28	141,39
873,45	132,71
873,62	126,61
873,79	130,58
873,96	128,24
874,13	149,91
874,30	127,55
874,47	131,52
874,64	134,84
874,81	124,56
874,97	123,04
875,14	122,59
875,31	137,66
875,48	106,62
875,65	132,83
875,82	106,29
875,99	114,69
876,16	111,61
876,33	117,43
876,50	123,94
876,67	116,78
876,83	113,74
877,00	102,60
877,17	132,34
877,34	124,11
877,51	102,36
877,68	111,57
877,85	117,96
878,02	107,07
878,19	113,01
878,35	113,38
878,52	108,75
878,69	109,36
878,86	111,45
879,03	109,07
879,20	98,83
879,37	105,27
879,54	102,89
879,70	98,14
879,87	104,24
880,04	93,92
880,21	96,46
880,38	91,50
880,55	101,95
880,72	93,43
880,89	89,17
881,05	100,76
881,22	102,11
881,39	87,53
881,56	91,67
881,73	101,21
881,90	94,74
882,06	92,81
882,23	96,54
882,40	87,33
882,57	92,16
882,74	89,82
882,91	77,74
883,07	82,90
883,24	82,62
883,41	91,22
883,58	80,03
883,75	85,93
883,92	84,70
884,08	96,46
884,25	89,13
884,42	80,44
884,59	97,28
884,76	88,19
884,92	79,87
885,09	78,97
885,26	73,93
885,43	86,71
885,60	79,42
885,76	70,74
885,93	80,16
886,10	72,05
886,27	77,21
886,44	80,85
886,60	82,04
886,77	80,49
886,94	70,20
887,11	71,47
887,28	76,80
887,44	66,27
887,61	73,77
887,78	76,63
887,95	70,25
888,12	64,18
888,28	71,43
888,45	75,16
888,62	72,42
888,79	73,32
888,95	73,77
889,12	71,19
889,29	61,23
889,46	74,30
889,62	63,24
889,79	60,37
889,96	56,48
890,13	52,88
890,29	55,79
890,46	61,44
890,63	73,07
890,80	61,60
890,96	55,21
891,13	55,66
891,30	56,65
891,47	61,77
891,63	52,22
891,80	62,38
891,97	43,87
892,14	59,84
892,30	58,12
892,47	61,28
892,64	65,21
892,80	53,62
892,97	39,28
893,14	57,55
893,31	47,76
893,47	52,88
893,64	57,79
893,81	50,58
893,97	48,74
894,14	48,95

