SpectraSuite Datei
++++++++++++++++++++++++++++++++++++
Datum: Mon Jan 08 15:18:58 CET 2018
Benutzer: Praktikum-Pc1
Dark-Spektrum vorhanden: Ja
Referenz-Spektrum vorhanden: Nein
Zahl der probierten Teilspektren: 1
Spektrometer: USB4H10187
Integrationszeit (usec): 67000 (USB4H10187)
Spektren Durchschnitt berechnet: 50 (USB4H10187)
Boxcar Glâ€°ttung: 0 (USB4H10187)
Dunkelstromkorrektur: Nein (USB4H10187)
Puls/Lampe aktiviert: Nein (USB4H10187)
Correct for Detector Non-linearity: Nein (USB4H10187)
Streulichtkorrektur: Nein (USB4H10187)
Anzahl Pixel in verarbeitetem Spektrum: 3648
>>>>>Begin Processed Spectral Data<<<<<
176,80	-22,94
177,02	-22,94
177,24	-22,94
177,46	-28,22
177,68	-33,63
177,91	-38,17
178,13	-30,23
178,35	-34,28
178,57	-40,39
178,79	-40,59
179,02	-28,71
179,24	-38,50
179,46	-29,78
179,68	-26,05
179,90	-30,39
180,12	-28,47
180,35	-41,86
180,57	-29,98
180,79	5,45
181,01	20,73
181,23	29,86
181,46	32,28
181,68	30,51
181,90	29,98
182,12	18,35
182,34	23,88
182,56	26,71
182,79	25,93
183,01	29,70
183,23	29,00
183,45	27,85
183,67	32,40
183,89	34,36
184,12	25,44
184,34	28,75
184,56	29,00
184,78	24,25
185,00	26,99
185,22	26,83
185,45	30,11
185,67	20,60
185,89	37,27
186,11	25,44
186,33	33,30
186,55	31,70
186,77	34,94
187,00	19,25
187,22	31,13
187,44	28,88
187,66	39,40
187,88	33,55
188,10	21,71
188,32	19,74
188,55	30,64
188,77	29,33
188,99	30,43
189,21	28,67
189,43	36,86
189,65	32,81
189,87	31,01
190,10	36,70
190,32	15,61
190,54	48,70
190,76	29,61
190,98	32,32
191,20	29,90
191,42	36,45
191,64	24,33
191,87	24,86
192,09	35,47
192,31	33,67
192,53	27,69
192,75	24,29
192,97	35,76
193,19	40,75
193,41	37,44
193,64	24,86
193,86	26,38
194,08	36,09
194,30	41,74
194,52	29,24
194,74	28,71
194,96	45,34
195,18	34,04
195,40	40,30
195,63	41,82
195,85	24,62
196,07	43,46
196,29	43,70
196,51	29,04
196,73	41,57
196,95	41,82
197,17	42,31
197,39	27,28
197,61	40,18
197,84	38,01
198,06	31,91
198,28	34,24
198,50	27,20
198,72	46,33
198,94	23,76
199,16	35,31
199,38	27,48
199,60	34,16
199,82	38,26
200,04	26,79
200,26	31,87
200,49	33,26
200,71	31,13
200,93	41,41
201,15	34,82
201,37	48,74
201,59	41,37
201,81	30,64
202,03	29,90
202,25	37,60
202,47	40,67
202,69	38,95
202,91	38,05
203,13	47,39
203,35	24,49
203,58	48,41
203,80	41,57
204,02	31,33
204,24	28,34
204,46	49,19
204,68	36,37
204,90	27,48
205,12	45,46
205,34	34,73
205,56	42,60
205,78	42,84
206,00	29,20
206,22	38,01
206,44	42,19
206,66	50,58
206,88	34,82
207,10	44,36
207,32	52,06
207,54	46,00
207,76	44,48
207,99	47,64
208,21	38,17
208,43	42,23
208,65	41,61
208,87	41,78
209,09	42,88
209,31	39,32
209,53	44,52
209,75	41,00
209,97	37,48
210,19	31,91
210,41	36,09
210,63	47,35
210,85	47,68
211,07	50,46
211,29	38,30
211,51	45,75
211,73	32,32
211,95	35,63
212,17	50,01
212,39	54,84
212,61	53,90
212,83	42,19
213,05	51,53
213,27	52,06
213,49	43,13
213,71	52,14
213,93	41,08
214,15	47,47
214,37	48,50
214,59	43,17
214,81	45,51
215,03	46,33
215,25	43,87
215,47	44,77
215,69	51,69
215,91	38,30
216,13	45,71
216,35	36,21
216,57	53,33
216,79	50,54
217,01	50,71
217,23	56,07
217,45	36,21
217,67	43,66
217,89	41,00
218,11	54,31
218,33	40,18
218,55	51,28
218,77	43,21
218,99	26,66
219,21	46,04
219,43	45,67
219,65	54,19
219,87	45,18
220,09	49,97
220,31	46,33
220,53	47,31
220,75	47,76
220,97	53,86
221,19	46,28
221,41	57,79
221,63	59,31
221,85	57,83
222,06	47,72
222,28	46,98
222,50	56,97
222,72	44,97
222,94	55,34
223,16	39,16
223,38	45,79
223,60	50,95
223,82	51,73
224,04	38,91
224,26	61,52
224,48	39,28
224,70	57,22
224,92	48,95
225,14	49,44
225,36	45,96
225,58	49,81
225,80	49,40
226,02	51,57
226,24	46,90
226,45	45,42
226,67	46,00
226,89	56,69
227,11	54,80
227,33	46,12
227,55	55,66
227,77	54,64
227,99	55,83
228,21	50,26
228,43	54,68
228,65	52,02
228,87	51,65
229,09	43,46
229,31	58,57
229,52	51,40
229,74	62,46
229,96	51,04
230,18	37,60
230,40	55,01
230,62	61,81
230,84	54,76
231,06	53,33
231,28	57,75
231,50	69,06
231,72	60,58
231,94	35,92
232,15	50,95
232,37	51,16
232,59	50,26
232,81	41,66
233,03	56,52
233,25	65,90
233,47	72,70
233,69	50,42
233,91	58,90
234,13	52,22
234,34	53,90
234,56	59,47
234,78	55,42
235,00	61,73
235,22	53,90
235,44	59,68
235,66	50,30
235,88	61,73
236,10	60,21
236,31	68,81
236,53	63,00
236,75	58,37
236,97	66,31
237,19	61,60
237,41	53,04
237,63	56,24
237,85	66,93
238,07	47,80
238,28	54,03
238,50	58,29
238,72	68,16
238,94	60,78
239,16	51,94
239,38	63,00
239,60	61,64
239,81	65,99
240,03	58,78
240,25	61,68
240,47	59,19
240,69	55,83
240,91	67,21
241,13	64,84
241,34	71,47
241,56	52,43
241,78	66,31
242,00	58,33
242,22	63,69
242,44	55,17
242,66	64,80
242,87	62,63
243,09	73,48
243,31	70,29
243,53	68,53
243,75	74,55
243,97	74,55
244,19	62,01
244,40	53,62
244,62	61,60
244,84	66,23
245,06	61,64
245,28	66,93
245,50	72,50
245,71	57,51
245,93	61,11
246,15	63,73
246,37	69,96
246,59	80,61
246,81	82,08
247,02	62,87
247,24	64,31
247,46	62,67
247,68	68,81
247,90	68,20
248,11	62,83
248,33	66,03
248,55	73,56
248,77	69,02
248,99	75,73
249,21	68,40
249,42	60,95
249,64	64,84
249,86	60,13
250,08	60,01
250,30	65,94
250,51	67,54
250,73	85,28
250,95	69,51
251,17	68,44
251,39	66,03
251,60	72,46
251,82	75,69
252,04	65,17
252,26	67,26
252,48	73,89
252,69	79,54
252,91	56,32
253,13	67,34
253,35	64,47
253,57	50,79
253,78	73,64
254,00	75,61
254,22	79,22
254,44	87,98
254,65	69,26
254,87	60,70
255,09	70,94
255,31	74,42
255,53	71,92
255,74	73,52
255,96	70,29
256,18	69,10
256,40	72,21
256,61	87,94
256,83	74,71
257,05	73,32
257,27	83,02
257,48	79,30
257,70	86,18
257,92	77,66
258,14	70,41
258,36	70,00
258,57	79,22
258,79	79,01
259,01	81,71
259,23	83,52
259,44	90,40
259,66	86,10
259,88	68,40
260,10	82,37
260,31	83,07
260,53	76,63
260,75	83,76
260,97	77,66
261,18	65,33
261,40	80,44
261,62	80,94
261,84	75,41
262,05	80,28
262,27	74,96
262,49	82,41
262,71	86,55
262,92	73,69
263,14	80,44
263,36	71,84
263,57	87,00
263,79	80,32
264,01	72,78
264,23	77,50
264,44	93,59
264,66	71,31
264,88	82,12
265,10	80,89
265,31	80,81
265,53	82,29
265,75	86,42
265,96	88,14
266,18	85,81
266,40	69,51
266,62	73,15
266,83	77,29
267,05	96,54
267,27	89,50
267,48	88,02
267,70	79,01
267,92	91,34
268,14	87,16
268,35	94,17
268,57	80,20
268,79	95,19
269,00	81,02
269,22	88,10
269,44	85,03
269,65	77,74
269,87	84,50
270,09	88,43
270,31	85,69
270,52	78,19
270,74	85,24
270,96	78,93
271,17	86,34
271,39	90,15
271,61	87,20
271,82	80,44
272,04	85,85
272,26	84,25
272,47	89,29
272,69	80,61
272,91	90,19
273,12	88,96
273,34	87,98
273,56	90,64
273,77	94,12
273,99	94,29
274,21	92,16
274,42	91,50
274,64	103,14
274,86	80,12
275,08	91,99
275,29	99,16
275,51	94,17
275,72	89,13
275,94	90,27
276,16	85,81
276,37	87,78
276,59	96,66
276,81	86,51
277,02	91,71
277,24	93,39
277,46	93,10
277,67	91,83
277,89	101,91
278,11	81,35
278,32	88,23
278,54	93,02
278,76	83,80
278,97	100,39
279,19	105,88
279,41	103,79
279,62	102,93
279,84	102,19
280,05	96,21
280,27	104,49
280,49	95,56
280,70	82,49
280,92	89,50
281,14	104,24
281,35	107,93
281,57	95,23
281,79	117,92
282,00	107,52
282,22	103,34
282,43	108,30
282,65	103,38
282,87	97,65
283,08	86,59
283,30	97,48
283,52	97,61
283,73	104,41
283,95	99,00
284,16	104,32
284,38	111,49
284,60	108,71
284,81	102,89
285,03	98,96
285,24	110,67
285,46	100,31
285,68	104,49
285,89	98,06
286,11	91,30
286,32	104,12
286,54	104,61
286,76	94,49
286,97	101,01
287,19	112,92
287,40	103,59
287,62	113,79
287,84	108,38
288,05	113,01
288,27	119,48
288,48	115,14
288,70	102,15
288,92	120,71
289,13	119,89
289,35	118,74
289,56	106,45
289,78	108,42
289,99	100,72
290,21	100,88
290,43	104,82
290,64	117,14
290,86	114,48
291,07	113,38
291,29	115,42
291,51	117,06
291,72	111,98
291,94	100,27
292,15	107,93
292,37	116,57
292,58	119,56
292,80	110,02
293,01	113,50
293,23	128,86
293,45	119,56
293,66	118,82
293,88	107,68
294,09	124,68
294,31	124,11
294,52	107,85
294,74	124,27
294,96	118,82
295,17	133,49
295,39	112,88
295,60	120,83
295,82	122,76
296,03	117,06
296,25	127,59
296,46	119,11
296,68	129,14
296,89	116,32
297,11	132,18
297,32	116,37
297,54	140,61
297,76	130,91
297,97	129,64
298,19	132,87
298,40	128,28
298,62	127,22
298,83	134,72
299,05	122,30
299,26	133,57
299,48	129,06
299,69	122,02
299,91	124,23
300,12	127,75
300,34	127,10
300,55	120,58
300,77	138,03
300,98	141,11
301,20	141,11
301,41	135,21
301,63	131,64
301,84	134,67
302,06	136,76
302,28	140,45
302,49	144,50
302,71	152,70
302,92	149,13
303,14	145,41
303,35	147,95
303,57	140,98
303,78	149,54
304,00	162,20
304,21	157,57
304,43	157,90
304,64	163,80
304,86	152,37
305,07	175,96
305,29	180,51
305,50	184,69
305,71	173,38
305,93	154,05
306,14	176,74
306,36	190,46
306,57	193,49
306,79	201,68
307,00	221,51
307,22	215,86
307,43	231,38
307,65	237,81
307,86	239,65
308,08	257,35
308,29	257,06
308,51	266,07
308,72	269,02
308,94	273,69
309,15	289,17
309,37	303,30
309,58	324,73
309,80	350,16
310,01	377,89
310,22	391,78
310,44	439,70
310,65	471,57
310,87	479,22
311,08	512,81
311,30	552,17
311,51	598,09
311,73	607,96
311,94	654,82
312,16	714,33
312,37	738,37
312,58	783,06
312,80	816,85
313,01	883,33
313,23	910,81
313,44	969,84
313,66	1029,02
313,87	1097,92
314,09	1180,86
314,30	1224,19
314,51	1317,01
314,73	1356,62
314,94	1400,03
315,16	1421,99
315,37	1467,21
315,59	1513,65
315,80	1591,80
316,01	1724,02
316,23	1886,51
316,44	2071,52
316,66	2172,77
316,87	2306,63
317,09	2418,24
317,30	2457,11
317,51	2549,80
317,73	2609,56
317,94	2732,36
318,16	2905,54
318,37	3122,66
318,58	3268,89
318,80	3361,17
319,01	3473,40
319,23	3510,10
319,44	3656,32
319,66	3773,14
319,87	4057,39
320,08	4313,60
320,30	4502,66
320,51	4767,96
320,73	4930,44
320,94	4947,48
321,15	5049,51
321,37	5098,38
321,58	5060,65
321,80	4894,36
322,01	4793,97
322,22	4880,88
322,44	4826,24
322,65	5109,52
322,86	5393,57
323,08	5755,94
323,29	6069,56
323,51	6518,77
323,72	6881,26
323,93	7069,71
324,15	7188,37
324,36	7374,00
324,58	7310,68
324,79	7539,84
325,00	7713,59
325,22	8117,94
325,43	8711,65
325,64	9334,60
325,86	10031,69
326,07	10498,09
326,28	10948,28
326,50	11186,21
326,71	11327,52
326,93	11223,16
327,14	10893,51
327,35	10812,25
327,57	10557,40
327,78	10347,28
327,99	10464,51
328,21	10680,69
328,42	11360,29
328,63	11897,43
328,85	12775,64
329,06	13305,37
329,27	14064,14
329,49	14052,79
329,70	14313,46
329,91	14032,07
330,13	13631,03
330,34	13096,10
330,56	12929,32
330,77	12639,00
330,98	12815,29
331,20	12673,45
331,41	13016,85
331,62	13546,86
331,84	13600,64
332,05	13801,22
332,26	14107,47
332,48	14037,06
332,69	14260,50
332,90	13869,95
333,11	13758,21
333,33	13757,60
333,54	13780,54
333,75	13780,74
333,97	13854,18
334,18	14199,84
334,39	14518,66
334,61	14903,48
334,82	14882,14
335,03	15252,29
335,25	14996,54
335,46	14583,18
335,67	14134,34
335,89	13685,06
336,10	13135,18
336,31	12660,05
336,53	12668,12
336,74	12417,98
336,95	12529,19
337,16	12811,85
337,38	12994,40
337,59	13492,02
337,80	13696,36
338,02	14251,00
338,23	14527,18
338,44	15088,74
338,65	15430,58
338,87	15653,65
339,08	15734,54
339,29	16326,65
339,51	16331,65
339,72	16748,45
339,93	16927,61
340,14	17136,46
340,36	17197,98
340,57	16995,93
340,78	16876,41
341,00	16927,53
341,21	16924,33
341,42	17022,43
341,63	17259,83
341,85	17113,93
342,06	17678,56
342,27	18066,61
342,49	18187,93
342,70	18447,28
342,91	18347,96
343,12	17993,86
343,34	17747,12
343,55	17184,55
343,76	16779,79
343,97	16087,33
344,19	15920,54
344,40	16435,69
344,61	16406,20
344,82	16612,55
345,04	16772,21
345,25	16941,90
345,46	16917,08
345,67	17226,08
345,89	17403,27
346,10	17077,19
346,31	17324,55
346,52	17627,85
346,74	17308,04
346,95	17457,54
347,16	17676,06
347,37	17065,68
347,59	16929,37
347,80	17177,13
348,01	17388,11
348,22	17127,90
348,43	17526,15
348,65	16925,56
348,86	16923,14
349,07	17390,98
349,28	17455,45
349,50	17822,24
349,71	18513,47
349,92	18536,82
350,13	19305,91
350,34	19357,03
350,56	19628,84
350,77	19802,87
350,98	19265,24
351,19	19222,03
351,41	19404,83
351,62	18710,00
351,83	18419,96
352,04	18424,26
352,25	18139,43
352,47	18637,09
352,68	18667,81
352,89	19002,04
353,10	19701,75
353,31	20286,24
353,53	20899,36
353,74	20859,14
353,95	21663,82
354,16	21566,26
354,37	21853,38
354,59	21456,77
354,80	21790,39
355,01	21568,67
355,22	21279,71
355,43	20929,83
355,65	20327,56
355,86	20117,36
356,07	19507,43
356,28	18796,09
356,49	18442,65
356,70	17950,04
356,92	17044,26
357,13	17097,34
357,34	16430,89
357,55	16253,01
357,76	15541,71
357,98	15199,98
358,19	15035,45
358,40	15356,33
358,61	15925,13
358,82	16539,89
359,03	17747,82
359,25	18694,51
359,46	20128,13
359,67	20027,86
359,88	20172,45
360,09	20018,98
360,30	19525,54
360,51	19349,41
360,73	19125,90
360,94	18725,93
361,15	18437,78
361,36	18160,77
361,57	18482,39
361,78	18476,77
362,00	19022,64
362,21	19562,85
362,42	20017,58
362,63	20071,94
362,84	20500,21
363,05	20403,63
363,26	20569,27
363,48	20410,59
363,69	20677,15
363,90	20733,06
364,11	20801,26
364,32	21008,47
364,53	20960,55
364,74	21682,83
364,95	21968,52
365,17	22595,61
365,38	23405,21
365,59	24132,28
365,80	24496,49
366,01	24926,36
366,22	25268,49
366,43	25201,77
366,64	24991,28
366,86	25186,41
367,07	25068,53
367,28	24413,10
367,49	23957,75
367,70	24215,67
367,91	23638,84
368,12	23472,14
368,33	23238,14
368,54	23210,00
368,76	23715,03
368,97	24200,44
369,18	25004,67
369,39	24733,28
369,60	25082,13
369,81	24898,84
370,02	24638,54
370,23	24322,58
370,44	24153,37
370,65	24051,80
370,87	24081,45
371,08	24178,89
371,29	24028,20
371,50	23680,83
371,71	23513,79
371,92	22798,27
372,13	22884,29
372,34	22611,50
372,55	21629,05
372,76	20872,73
372,97	20611,17
373,18	19835,36
373,40	19812,42
373,61	19253,86
373,82	18939,57
374,03	18642,41
374,24	18979,67
374,45	18765,13
374,66	19309,40
374,87	19424,16
375,08	20164,30
375,29	20811,83
375,50	21153,92
375,71	21730,26
375,92	21574,86
376,13	21859,08
376,34	22305,66
376,56	22439,43
376,77	22980,13
376,98	23508,84
377,19	24249,67
377,40	25195,63
377,61	26075,15
377,82	26370,96
378,03	26560,72
378,24	26587,06
378,45	25611,49
378,66	24858,90
378,87	23541,73
379,08	23076,43
379,29	22979,64
379,50	22241,80
379,71	21957,62
379,92	22736,43
380,13	22993,16
380,34	23039,98
380,55	23255,09
380,76	23221,02
380,97	23442,89
381,18	22162,46
381,39	21306,74
381,60	20601,87
381,81	19139,05
382,02	18427,70
382,24	17392,01
382,45	16214,51
382,66	15629,32
382,87	15165,95
383,08	14762,13
383,29	14870,75
383,50	14938,42
383,71	15676,34
383,92	16287,00
384,13	17067,16
384,34	18107,77
384,55	18711,10
384,76	19796,85
384,97	19858,42
385,18	20055,72
385,39	19722,39
385,60	19745,57
385,81	19713,91
386,02	19659,84
386,23	19746,51
386,44	20431,77
386,65	19906,17
386,86	19933,66
387,07	19939,06
387,28	20195,35
387,49	19866,61
387,70	19964,99
387,91	19805,78
388,12	19767,20
388,32	19865,05
388,53	19987,23
388,74	20626,20
388,95	21279,21
389,16	21912,73
389,37	22730,53
389,58	23244,40
389,79	23663,83
390,00	24054,91
390,21	24312,42
390,42	25001,81
390,63	25162,04
390,84	25575,69
391,05	25747,31
391,26	26074,49
391,47	25491,35
391,68	25353,16
391,89	23816,07
392,10	22959,74
392,31	20973,33
392,52	19508,54
392,73	17542,74
392,94	15575,21
393,15	14823,73
393,36	14018,96
393,57	14344,14
393,78	15228,49
393,98	16747,26
394,19	17957,70
394,40	19130,61
394,61	20651,35
394,82	22743,72
395,03	23535,67
395,24	23832,42
395,45	23790,88
395,66	23203,53
395,87	21824,47
396,08	20513,36
396,29	18585,19
396,50	17323,89
396,71	16200,74
396,92	16252,93
397,12	17240,33
397,33	18541,82
397,54	20321,50
397,75	22663,40
397,96	24085,79
398,17	25993,72
398,38	27617,92
398,59	29022,42
398,80	29114,09
399,01	30205,90
399,22	31152,19
399,43	30873,42
399,63	31165,78
399,84	32494,92
400,05	31833,05
400,26	31781,36
400,47	32685,01
400,68	32574,13
400,89	32618,78
401,10	33112,46
401,31	33065,56
401,52	33287,89
401,72	33746,18
401,93	33529,43
402,14	33749,17
402,35	33600,12
402,56	33998,12
402,77	32794,53
402,98	32768,36
403,19	33151,25
403,40	32637,04
403,60	32692,50
403,81	32596,86
404,02	32312,03
404,23	32669,07
404,44	32370,19
404,65	32444,99
404,86	31896,29
405,07	32164,54
405,27	31585,29
405,48	31959,70
405,69	31081,94
405,90	31481,05
406,11	30979,25
406,32	30755,17
406,53	31394,79
406,74	31168,53
406,94	30638,51
407,15	31905,84
407,36	31538,88
407,57	31830,27
407,78	32360,61
407,99	33008,83
408,20	32613,90
408,40	33727,06
408,61	34157,05
408,82	33674,09
409,03	34227,58
409,24	33216,33
409,45	32612,96
409,65	32152,37
409,86	31810,89
410,07	31403,14
410,28	31201,79
410,49	31815,48
410,70	31763,09
410,90	32709,17
411,11	34072,06
411,32	33623,22
411,53	34018,07
411,74	34755,71
411,95	35559,95
412,15	35304,73
412,36	35010,89
412,57	34356,19
412,78	34584,05
412,99	34614,93
413,20	34415,71
413,40	34017,42
413,61	34291,52
413,82	35664,07
414,03	33929,15
414,24	34141,24
414,44	33964,82
414,65	34423,57
414,86	34659,41
415,07	34111,13
415,28	34365,37
415,48	34166,75
415,69	34237,20
415,90	34971,28
416,11	35155,31
416,32	34581,34
416,53	34410,91
416,73	34467,07
416,94	33790,87
417,15	34316,91
417,36	33683,11
417,56	32517,20
417,77	32768,07
417,98	33150,39
418,19	32704,05
418,40	33086,37
418,60	33472,37
418,81	33059,46
419,02	32547,83
419,23	33640,55
419,44	31998,98
419,64	31912,76
419,85	32168,71
420,06	31781,03
420,27	32978,40
420,47	33404,79
420,68	33112,34
420,89	33613,88
421,10	34545,26
421,30	33896,67
421,51	34360,16
421,72	33814,13
421,93	33348,39
422,14	31575,54
422,34	32153,93
422,55	31803,07
422,76	31574,23
422,97	31929,35
423,17	31955,52
423,38	32127,35
423,59	31101,64
423,80	31508,08
424,00	31664,71
424,21	31270,15
424,42	31673,60
424,63	31913,58
424,83	31645,34
425,04	32133,74
425,25	31046,14
425,46	31979,52
425,66	31463,72
425,87	31609,50
426,08	30771,71
426,28	32111,99
426,49	30764,75
426,70	31166,03
426,91	30564,01
427,11	30625,82
427,32	30031,05
427,53	30183,25
427,74	30523,62
427,94	30535,95
428,15	30349,46
428,36	30296,42
428,56	30259,64
428,77	30071,59
428,98	29186,38
429,19	28139,13
429,39	27421,40
429,60	27007,71
429,81	26182,54
430,01	24471,71
430,22	23963,57
430,43	23900,41
430,64	23669,97
430,84	24358,34
431,05	25769,47
431,26	27363,36
431,46	28681,27
431,67	29518,60
431,88	31132,40
432,08	30916,38
432,29	31996,69
432,50	32139,96
432,70	32042,76
432,91	32357,21
433,12	32895,87
433,33	31984,40
433,53	31424,03
433,74	31780,54
433,95	31062,24
434,15	30405,78
434,36	31447,13
434,57	31117,29
434,77	31670,98
434,98	32515,72
435,19	32439,33
435,39	33234,35
435,60	34029,91
435,81	35106,53
436,01	34763,16
436,22	35603,40
436,43	35530,78
436,63	35959,83
436,84	35784,61
437,05	35369,85
437,25	34451,91
437,46	34178,71
437,67	33943,98
437,87	32619,55
438,08	32092,86
438,29	32380,35
438,49	31783,94
438,70	31462,58
438,91	32477,02
439,11	33775,59
439,32	33981,21
439,52	32977,38
439,73	32644,13
439,94	33225,59
440,14	33745,41
440,35	34477,19
440,56	33705,59
440,76	34137,88
440,97	35088,59
441,18	35313,41
441,38	35011,13
441,59	35837,77
441,79	36387,53
442,00	36778,86
442,21	36485,46
442,41	36695,83
442,62	35860,83
442,83	36167,13
443,03	35921,99
443,24	35896,30
443,44	36661,59
443,65	36545,80
443,86	35723,70
444,06	36373,36
444,27	36817,60
444,48	36804,62
444,68	36472,28
444,89	36605,02
445,09	36664,54
445,30	34975,62
445,51	35592,96
445,71	34935,48
445,92	35004,99
446,12	35332,42
446,33	35157,73
446,54	35617,99
446,74	36251,75
446,95	35344,58
447,15	36734,05
447,36	36842,88
447,57	36389,54
447,77	36824,81
447,98	36918,81
448,18	36525,36
448,39	35759,58
448,59	37118,49
448,80	36871,10
449,01	36504,76
449,21	36649,88
449,42	36753,99
449,62	37654,69
449,83	37398,33
450,04	37367,69
450,24	38735,69
450,45	38436,52
450,65	38266,17
450,86	38293,86
451,06	38935,16
451,27	38919,88
451,47	37768,76
451,68	37575,76
451,89	37441,01
452,09	37352,16
452,30	35805,42
452,50	35680,57
452,71	35981,75
452,91	35279,09
453,12	35146,71
453,33	35176,20
453,53	34551,94
453,74	36396,79
453,94	35622,41
454,15	34901,16
454,35	34943,47
454,56	35813,98
454,76	36353,17
454,97	35076,63
455,17	35680,20
455,38	36396,75
455,58	36410,75
455,79	35897,33
456,00	36347,55
456,20	36590,40
456,41	37046,53
456,61	35619,79
456,82	35698,02
457,02	37030,06
457,23	36940,60
457,43	37047,02
457,64	35866,45
457,84	35683,68
458,05	35720,51
458,25	35487,20
458,46	35731,73
458,66	35575,35
458,87	35872,84
459,07	36109,58
459,28	35583,05
459,48	35376,69
459,69	35858,01
459,89	35498,43
460,10	36032,00
460,30	37103,01
460,51	36510,74
460,71	36794,26
460,92	37013,43
461,12	37137,41
461,33	38064,61
461,53	37111,08
461,74	37028,38
461,94	37285,85
462,15	38068,95
462,35	38013,41
462,56	37581,29
462,76	37730,55
462,97	38068,01
463,17	37560,32
463,38	37362,45
463,58	36967,11
463,79	38436,36
463,99	37445,59
464,20	37553,11
464,40	37157,85
464,61	36842,10
464,81	37644,00
465,02	37179,07
465,22	37573,92
465,43	38230,66
465,63	37608,49
465,83	37709,66
466,04	38514,43
466,24	37457,72
466,45	38315,28
466,65	37259,84
466,86	37538,00
467,06	37665,26
467,27	37773,06
467,47	38806,96
467,68	38161,48
467,88	38485,59
468,08	38780,13
468,29	38768,09
468,49	39403,04
468,70	39555,04
468,90	39778,02
469,11	40171,69
469,31	40161,16
469,52	39713,02
469,72	41492,01
469,92	39760,33
470,13	40102,96
470,33	39611,98
470,54	39183,58
470,74	39889,27
470,95	40267,33
471,15	41183,01
471,35	41273,70
471,56	41791,26
471,76	42922,27
471,97	43268,62
472,17	43307,08
472,38	43534,86
472,58	43691,04
472,78	43895,51
472,99	43443,23
473,19	43559,56
473,40	44479,01
473,60	43395,39
473,80	44729,36
474,01	45042,41
474,21	45400,85
474,42	45652,42
474,62	46433,43
474,83	45565,83
475,03	46514,20
475,23	46152,33
475,44	46753,04
475,64	46726,66
475,85	46097,65
476,05	45876,10
476,25	46758,57
476,46	46806,16
476,66	46540,87
476,86	46927,98
477,07	47692,24
477,27	48853,64
477,48	48842,50
477,68	49182,71
477,88	50103,84
478,09	49493,22
478,29	50146,48
478,50	50044,33
478,70	49965,56
478,90	50177,81
479,11	50857,99
479,31	51595,58
479,51	51863,74
479,72	51664,76
479,92	52101,64
480,12	51899,01
480,33	52400,88
480,53	52325,77
480,74	52791,39
480,94	53050,21
481,14	53791,99
481,35	54124,91
481,55	54211,94
481,75	54493,21
481,96	54559,89
482,16	54393,31
482,36	54993,94
482,57	55200,91
482,77	54569,52
482,97	55326,78
483,18	55088,07
483,38	54985,91
483,58	55200,38
483,79	54822,77
483,99	55078,44
484,19	55111,62
484,40	55089,91
484,60	54656,80
484,80	55190,22
485,01	54648,20
485,21	53394,60
485,41	51978,72
485,62	51094,40
485,82	49791,32
486,02	49163,66
486,23	48869,74
486,43	49142,81
486,63	49845,27
486,84	50495,54
487,04	50957,39
487,24	52244,99
487,45	52462,73
487,65	54189,83
487,85	54118,93
488,06	54944,34
488,26	54816,18
488,46	55077,50
488,67	55188,33
488,87	55515,64
489,07	56071,79
489,27	56721,07
489,48	57392,40
489,68	57358,44
489,88	58313,45
490,09	58457,06
490,29	58351,22
490,49	58537,71
490,70	58507,48
490,90	58244,44
491,10	57779,14
491,30	57867,65
491,51	56886,84
491,71	57156,47
491,91	56269,05
492,12	56614,25
492,32	56441,08
492,52	57228,56
492,72	57172,41
492,93	57515,69
493,13	57414,72
493,33	57573,07
493,53	57664,29
493,74	57908,94
493,94	58544,01
494,14	58273,64
494,34	58801,07
494,55	59056,95
494,75	59253,92
494,95	59112,16
495,16	59077,59
495,36	58941,61
495,56	58611,96
495,76	58639,20
495,97	58645,10
496,17	58696,26
496,37	58599,68
496,57	58909,78
496,78	59006,24
496,98	58796,20
497,18	58798,70
497,38	58451,98
497,59	58354,94
497,79	57330,18
497,99	57415,58
498,19	56833,92
498,39	57117,48
498,60	56905,92
498,80	57174,90
499,00	56743,27
499,20	57045,64
499,41	57053,99
499,61	56475,77
499,81	56514,80
500,01	55907,46
500,22	55763,16
500,42	55215,86
500,62	54743,80
500,82	54672,94
501,02	54224,48
501,23	53929,94
501,43	53429,25
501,63	53291,87
501,83	53549,59
502,03	52983,82
502,24	53682,75
502,44	53700,44
502,64	53925,11
502,84	53942,92
503,05	54039,26
503,25	54082,51
503,45	53624,10
503,65	53382,03
503,85	52956,91
504,06	52766,24
504,26	52748,10
504,46	53386,90
504,66	53155,89
504,86	53768,76
505,06	53677,55
505,27	53844,21
505,47	54655,94
505,67	54789,27
505,87	54830,88
506,07	55010,57
506,28	55096,91
506,48	54692,77
506,68	54772,68
506,88	54368,29
507,08	54087,88
507,28	53820,13
507,49	53829,30
507,69	53489,18
507,89	52810,56
508,09	53514,20
508,29	53219,13
508,49	53552,79
508,70	54003,91
508,90	54278,83
509,10	54166,93
509,30	53857,20
509,50	53982,74
509,70	53789,61
509,91	53646,25
510,11	53932,85
510,31	53743,57
510,51	53571,18
510,71	53935,06
510,91	53849,74
511,11	54236,89
511,32	54385,94
511,52	54028,36
511,72	54494,44
511,92	54274,08
512,12	54093,33
512,32	53388,50
512,52	53400,83
512,73	53394,52
512,93	53040,10
513,13	52706,65
513,33	52869,09
513,53	52530,40
513,73	52431,93
513,93	51760,20
514,13	51663,98
514,34	51812,91
514,54	51780,27
514,74	52036,55
514,94	52189,70
515,14	52070,06
515,34	52371,97
515,54	52418,05
515,74	52194,12
515,94	51265,12
516,15	50804,70
516,35	49639,08
516,55	48472,47
516,75	47624,61
516,95	47204,78
517,15	46961,85
517,35	46900,45
517,55	47024,72
517,75	47493,95
517,95	47141,50
518,16	47273,51
518,36	47335,03
518,56	47587,58
518,76	48114,98
518,96	48812,31
519,16	49237,39
519,36	49815,53
519,56	49799,39
519,76	50552,22
519,96	50576,19
520,16	51112,02
520,37	50933,02
520,57	51269,05
520,77	51497,77
520,97	51677,17
521,17	51630,73
521,37	52083,98
521,57	52006,98
521,77	51814,88
521,97	51734,68
522,17	51362,73
522,37	51568,47
522,57	50857,58
522,77	50893,54
522,97	51026,12
523,17	50976,19
523,37	51068,80
523,58	51377,64
523,78	51962,78
523,98	52433,82
524,18	51868,45
524,38	52504,84
524,58	52305,24
524,78	52122,28
524,98	52462,20
525,18	51886,44
525,38	51840,48
525,58	51337,42
525,78	51138,15
525,98	50369,91
526,18	49274,05
526,38	48413,12
526,58	47900,02
526,78	47216,62
526,98	47343,47
527,18	47160,05
527,38	47733,44
527,58	47908,54
527,78	48465,22
527,98	48808,87
528,18	49071,71
528,38	49601,31
528,58	50044,78
528,78	50699,56
528,98	50653,15
529,18	50705,94
529,38	50801,79
529,58	50366,84
529,78	50428,16
529,98	49968,35
530,18	50577,29
530,38	50376,10
530,58	50691,45
530,78	50944,00
530,98	50560,25
531,18	50802,65
531,38	50632,46
531,58	50633,77
531,78	49959,38
531,98	49444,07
532,18	49018,95
532,38	48682,06
532,58	47989,81
532,78	47733,48
532,98	47943,36
533,18	47792,30
533,38	47638,29
533,58	48336,49
533,78	48067,46
533,98	48184,85
534,18	47960,44
534,38	48094,38
534,58	48598,34
534,78	48436,67
534,98	48896,11
535,18	49129,62
535,38	49452,22
535,58	49373,00
535,78	49415,36
535,98	49246,07
536,18	49153,50
536,38	48350,21
536,58	48541,98
536,78	47597,37
536,98	47599,34
537,18	48017,54
537,38	47695,23
537,58	47624,00
537,78	48108,51
537,98	47847,02
538,17	47780,30
538,37	47496,49
538,57	47747,33
538,77	47356,70
538,97	47243,65
539,17	46986,75
539,37	46616,64
539,57	46299,54
539,77	46068,81
539,97	45603,39
540,17	45203,71
540,37	44939,11
540,57	44596,16
540,77	44753,61
540,97	44714,57
541,16	44679,63
541,36	44952,50
541,56	44919,04
541,76	44982,28
541,96	45430,13
542,16	44756,76
542,36	45011,45
542,56	44739,31
542,76	44920,35
542,96	44782,65
543,16	44635,23
543,36	44763,64
543,55	44771,26
543,75	45092,75
543,95	44976,92
544,15	44912,90
544,35	44584,69
544,55	44917,57
544,75	44788,99
544,95	44967,17
545,15	44349,05
545,35	44531,32
545,54	44442,07
545,74	44528,08
545,94	43946,50
546,14	44372,40
546,34	44218,64
546,54	43896,37
546,74	43999,22
546,94	43752,56
547,14	43463,63
547,33	43310,65
547,53	42801,52
547,73	43009,02
547,93	42895,69
548,13	42681,51
548,33	42836,83
548,53	43061,00
548,72	42668,73
548,92	43016,76
549,12	43068,41
549,32	42764,95
549,52	42874,84
549,72	42677,74
549,92	42792,88
550,12	42383,90
550,31	42819,18
550,51	41937,32
550,71	42396,31
550,91	42257,50
551,11	42116,93
551,31	42267,74
551,50	42071,09
551,70	42082,97
551,90	42338,31
552,10	42067,16
552,30	41855,40
552,50	41593,26
552,70	41612,23
552,89	41488,41
553,09	41454,16
553,29	41346,97
553,49	41285,66
553,69	41656,75
553,88	41407,63
554,08	41211,40
554,28	41323,91
554,48	41231,75
554,68	41254,32
554,88	41275,70
555,07	41239,66
555,27	41095,44
555,47	41053,70
555,67	40913,01
555,87	40995,58
556,06	40394,91
556,26	40424,86
556,46	40173,08
556,66	39842,62
556,86	39523,83
557,06	39400,54
557,25	39300,56
557,45	39058,74
557,65	39355,04
557,85	39172,44
558,05	38835,34
558,24	38678,84
558,44	38364,76
558,64	38334,62
558,84	37758,52
559,03	37625,45
559,23	37578,30
559,43	37641,17
559,63	37481,19
559,83	37360,36
560,02	37368,84
560,22	37728,21
560,42	38067,68
560,62	38113,56
560,82	37775,40
561,01	37783,30
561,21	37517,15
561,41	37732,88
561,61	37354,09
561,80	37262,50
562,00	37213,35
562,20	37193,12
562,40	37560,12
562,59	37210,65
562,79	37058,40
562,99	37145,28
563,19	37178,58
563,38	36808,06
563,58	36915,82
563,78	36787,33
563,98	36703,41
564,17	36506,56
564,37	36615,51
564,57	36574,18
564,77	36406,13
564,96	36354,19
565,16	35938,41
565,36	35967,37
565,56	35599,76
565,75	35430,97
565,95	35319,15
566,15	35409,01
566,35	35411,18
566,54	35327,54
566,74	35626,87
566,94	35564,49
567,14	35448,21
567,33	35563,84
567,53	35435,23
567,73	35339,95
567,92	35076,30
568,12	34942,03
568,32	34678,62
568,52	34523,43
568,71	34148,94
568,91	34363,81
569,11	34446,06
569,30	33935,33
569,50	34102,98
569,70	33867,96
569,90	33613,80
570,09	33671,64
570,29	33336,18
570,49	33299,52
570,68	32898,53
570,88	32649,25
571,08	32819,31
571,27	32705,53
571,47	32774,75
571,67	33003,10
571,87	33196,59
572,06	32939,49
572,26	33302,59
572,46	33181,11
572,65	33250,33
572,85	33163,66
573,05	33520,82
573,24	33172,87
573,44	33066,34
573,64	33202,41
573,83	33142,36
574,03	32900,41
574,23	33185,33
574,42	32838,81
574,62	32796,74
574,82	32555,78
575,01	32190,83
575,21	32223,31
575,41	32288,19
575,60	31945,73
575,80	31917,96
576,00	32024,13
576,19	32061,77
576,39	31787,34
576,59	32128,74
576,78	31984,85
576,98	31959,13
577,18	32153,44
577,37	31981,08
577,57	31951,38
577,77	31766,62
577,96	31486,33
578,16	31558,83
578,35	31434,60
578,55	31130,31
578,75	31466,59
578,94	31188,68
579,14	31613,18
579,34	31598,97
579,53	31684,86
579,73	31748,92
579,93	31708,21
580,12	31979,20
580,32	31901,33
580,51	32041,74
580,71	32102,73
580,91	32059,15
581,10	32303,55
581,30	32371,22
581,50	32515,64
581,69	32356,47
581,89	32526,41
582,08	32702,42
582,28	32501,76
582,48	32929,33
582,67	32709,26
582,87	32871,99
583,06	32850,69
583,26	32915,98
583,46	32903,40
583,65	32719,74
583,85	32977,17
584,04	32834,76
584,24	32526,62
584,44	32729,90
584,63	32674,69
584,83	32466,16
585,02	32250,10
585,22	32228,76
585,42	32034,70
585,61	31666,31
585,81	31544,66
586,00	31665,24
586,20	31597,58
586,39	31485,51
586,59	31461,55
586,79	31812,12
586,98	31321,68
587,18	31526,27
587,37	31541,59
587,57	31086,77
587,76	30950,54
587,96	30791,50
588,16	30338,45
588,35	29741,01
588,55	29111,79
588,74	28739,60
588,94	28065,61
589,13	27645,78
589,33	27319,78
589,52	27185,06
589,72	27200,18
589,92	27521,26
590,11	27683,29
590,31	27832,92
590,50	28136,92
590,70	28258,08
590,89	28446,20
591,09	28469,67
591,28	28483,44
591,48	28547,95
591,67	28443,95
591,87	28558,68
592,06	28397,79
592,26	28346,71
592,46	28422,94
592,65	28479,14
592,85	28304,16
593,04	28667,38
593,24	28424,58
593,43	28291,50
593,63	28429,78
593,82	28204,71
594,02	27891,70
594,21	28028,54
594,41	27573,40
594,60	27593,63
594,80	27562,38
594,99	27399,20
595,19	27342,84
595,38	27622,59
595,58	27493,24
595,77	27452,32
595,97	27522,04
596,16	27617,39
596,36	27493,41
596,55	27604,94
596,75	27577,29
596,94	27476,61
597,14	27431,85
597,33	27324,29
597,53	27279,60
597,72	27182,57
597,92	27134,81
598,11	26995,59
598,31	26988,38
598,50	26749,18
598,70	26760,89
598,89	26707,52
599,09	26403,36
599,28	26675,65
599,48	26553,64
599,67	26496,29
599,87	26410,61
600,06	26452,06
600,26	26243,98
600,45	26156,62
600,64	26256,19
600,84	26032,18
601,03	26154,69
601,23	25963,53
601,42	25876,62
601,62	25655,56
601,81	25763,00
602,01	25720,28
602,20	25656,09
602,40	25622,34
602,59	25569,67
602,78	25801,25
602,98	25695,90
603,17	25924,50
603,37	25902,59
603,56	25894,76
603,76	25955,05
603,95	25961,28
604,15	25736,54
604,34	25911,43
604,53	25717,49
604,73	25832,38
604,92	25710,36
605,12	25726,46
605,31	25645,16
605,51	25676,69
605,70	25547,10
605,89	25514,91
606,09	25358,89
606,28	25363,93
606,48	25387,48
606,67	25231,71
606,87	25408,37
607,06	25269,27
607,25	25161,59
607,45	25204,15
607,64	25061,12
607,84	25065,42
608,03	24830,06
608,22	24884,99
608,42	24896,25
608,61	24751,26
608,81	24584,02
609,00	24566,16
609,19	24472,12
609,39	24502,43
609,58	24422,68
609,78	24401,22
609,97	24187,66
610,16	24142,60
610,36	24183,56
610,55	24141,82
610,75	24146,66
610,94	24174,26
611,13	24211,00
611,33	24225,09
611,52	24257,29
611,71	23905,61
611,91	24031,48
612,10	24068,14
612,30	23802,03
612,49	23922,98
612,68	24025,09
612,88	23801,37
613,07	23765,86
613,26	23825,62
613,46	23674,40
613,65	23653,51
613,84	23692,83
614,04	23615,82
614,23	23514,98
614,43	23890,78
614,62	23702,29
614,81	23816,57
615,01	23773,23
615,20	23765,28
615,39	23665,96
615,59	23512,97
615,78	23342,95
615,97	23179,57
616,17	23287,21
616,36	23138,61
616,55	23199,39
616,75	23336,07
616,94	23220,77
617,13	23294,62
617,33	23416,56
617,52	23541,24
617,71	23518,30
617,91	23771,80
618,10	23670,34
618,29	23776,92
618,49	23848,47
618,68	23836,19
618,87	23742,06
619,07	23910,49
619,26	23942,60
619,45	24104,06
619,65	23945,10
619,84	24117,29
620,03	24151,29
620,22	24358,29
620,42	24030,78
620,61	24210,43
620,80	24351,78
621,00	24168,65
621,19	24120,28
621,38	24150,43
621,58	24129,00
621,77	23976,47
621,96	24011,33
622,15	23993,02
622,35	23868,34
622,54	23852,36
622,73	23970,61
622,93	23788,22
623,12	23795,92
623,31	23729,28
623,50	23675,38
623,70	23699,54
623,89	23578,88
624,08	23359,58
624,28	23605,71
624,47	23495,36
624,66	23354,34
624,85	23432,24
625,05	23355,45
625,24	23227,98
625,43	23360,44
625,62	23215,12
625,82	23262,10
626,01	23265,62
626,20	23402,18
626,39	23329,11
626,59	23441,30
626,78	23387,07
626,97	23258,90
627,17	23050,50
627,36	22790,86
627,55	22427,63
627,74	22337,07
627,93	22137,11
628,13	22059,98
628,32	22019,51
628,51	22064,24
628,70	22206,04
628,90	22162,79
629,09	22178,19
629,28	22133,42
629,47	22092,67
629,67	22017,88
629,86	22238,24
630,05	22161,68
630,24	22225,50
630,44	22291,65
630,63	22408,42
630,82	22378,40
631,01	22467,00
631,20	22222,35
631,40	22393,43
631,59	22342,36
631,78	22232,01
631,97	22371,40
632,16	22440,78
632,36	22631,20
632,55	22647,59
632,74	22779,97
632,93	22726,10
633,13	22684,69
633,32	22785,91
633,51	22744,54
633,70	22713,49
633,89	22818,02
634,09	22710,01
634,28	22753,30
634,47	22805,40
634,66	22917,92
634,85	22825,14
635,04	22948,60
635,24	22844,52
635,43	22908,37
635,62	22810,03
635,81	22714,31
636,00	22735,28
636,20	22856,89
636,39	22848,49
636,58	22844,72
636,77	22793,85
636,96	22929,59
637,15	23014,05
637,35	22950,44
637,54	22966,62
637,73	23042,97
637,92	23007,90
638,11	23026,30
638,30	23023,43
638,50	23010,16
638,69	23115,55
638,88	22878,88
639,07	22757,85
639,26	22945,73
639,45	22573,16
639,64	22605,81
639,84	22733,76
640,03	22372,42
640,22	22520,86
640,41	22508,04
640,60	22215,14
640,79	22287,63
640,98	22281,94
641,18	22225,05
641,37	22217,31
641,56	22031,92
641,75	22185,77
641,94	21965,65
642,13	22157,22
642,32	22005,87
642,52	22145,67
642,71	22173,32
642,90	22093,81
643,09	22078,50
643,28	22117,94
643,47	21922,56
643,66	22072,39
643,85	21885,33
644,04	22000,92
644,24	21932,89
644,43	21926,50
644,62	21843,84
644,81	21745,21
645,00	21584,16
645,19	21647,89
645,38	21414,99
645,57	21387,76
645,76	21267,01
645,96	21141,88
646,15	21064,96
646,34	21007,33
646,53	20782,66
646,72	20854,14
646,91	20642,09
647,10	20415,01
647,29	20380,03
647,48	20422,51
647,67	20151,36
647,86	20131,86
648,05	20184,70
648,25	19989,16
648,44	19933,00
648,63	19904,37
648,82	19823,56
649,01	19697,16
649,20	19693,84
649,39	19529,31
649,58	19548,35
649,77	19581,86
649,96	19685,32
650,15	19788,38
650,34	19870,33
650,53	19988,46
650,72	19911,21
650,91	19863,95
651,11	19938,00
651,30	19679,55
651,49	19743,98
651,68	19600,90
651,87	19517,63
652,06	19575,30
652,25	19666,07
652,44	19679,91
652,63	19705,68
652,82	19697,40
653,01	19753,93
653,20	19586,81
653,39	19627,12
653,58	19671,27
653,77	19547,78
653,96	19488,51
654,15	19477,04
654,34	19317,42
654,53	19253,36
654,72	19048,57
654,91	18896,12
655,10	18709,14
655,29	18372,74
655,48	18055,96
655,67	17561,99
655,86	17305,62
656,05	16867,93
656,24	16564,59
656,43	16604,11
656,62	16582,65
656,81	16735,30
657,00	16983,68
657,19	17092,51
657,38	17379,55
657,57	17623,55
657,76	17705,80
657,95	17953,23
658,14	18100,60
658,33	18129,93
658,52	18164,66
658,71	18388,75
658,90	18340,50
659,09	18486,93
659,28	18422,26
659,47	18566,35
659,66	18653,27
659,85	18606,41
660,04	18626,52
660,23	18613,41
660,42	18476,32
660,61	18705,33
660,80	18494,39
660,99	18543,46
661,18	18665,80
661,37	18623,65
661,56	18666,38
661,75	18651,79
661,94	18715,61
662,13	18762,22
662,32	18593,75
662,51	18532,07
662,70	18566,72
662,89	18539,89
663,08	18410,58
663,27	18371,02
663,46	18191,94
663,65	18227,17
663,83	18120,43
664,02	18209,84
664,21	18134,97
664,40	18193,99
664,59	18228,85
664,78	18172,08
664,97	18228,40
665,16	18003,57
665,35	18101,87
665,54	18018,89
665,73	18132,47
665,92	18057,76
666,11	17973,96
666,30	18009,22
666,49	17851,94
666,67	17856,03
666,86	17723,78
667,05	17754,87
667,24	17779,52
667,43	17779,36
667,62	17653,08
667,81	17529,30
668,00	17732,26
668,19	17503,17
668,38	17534,26
668,57	17649,03
668,76	17580,13
668,94	17541,43
669,13	17418,10
669,32	17495,92
669,51	17395,20
669,70	17436,45
669,89	17499,52
670,08	17309,02
670,27	17266,42
670,46	17365,14
670,64	17221,98
670,83	17243,81
671,02	17151,33
671,21	17112,74
671,40	16988,02
671,59	17033,98
671,78	16911,39
671,97	16966,72
672,16	16863,59
672,34	16901,60
672,53	16907,46
672,72	16833,20
672,91	16868,05
673,10	16792,36
673,29	16876,12
673,48	16882,43
673,66	16739,77
673,85	16815,91
674,04	16678,33
674,23	16595,18
674,42	16644,74
674,61	16708,07
674,80	16538,33
674,98	16639,58
675,17	16498,35
675,36	16452,44
675,55	16468,74
675,74	16514,94
675,93	16379,37
676,12	16473,53
676,30	16451,78
676,49	16482,26
676,68	16387,60
676,87	16366,22
677,06	16313,63
677,25	16300,77
677,43	16360,65
677,62	16363,07
677,81	16183,34
678,00	16136,48
678,19	16233,35
678,37	16150,94
678,56	16105,27
678,75	16309,12
678,94	15986,40
679,13	16075,00
679,32	16088,23
679,50	15954,82
679,69	16012,00
679,88	15870,77
680,07	15886,54
680,26	15835,71
680,44	15800,20
680,63	15849,89
680,82	15752,89
681,01	15847,18
681,20	15806,30
681,38	15760,06
681,57	15644,80
681,76	15690,59
681,95	15565,50
682,14	15704,64
682,32	15627,48
682,51	15579,72
682,70	15554,73
682,89	15520,08
683,07	15493,54
683,26	15386,92
683,45	15416,33
683,64	15227,30
683,83	15237,01
684,01	15170,41
684,20	15175,16
684,39	15135,88
684,58	15097,22
684,76	15078,91
684,95	14998,67
685,14	15070,43
685,33	14890,54
685,52	14902,50
685,70	14716,58
685,89	14516,45
686,08	14164,57
686,27	13728,80
686,45	12937,43
686,64	12196,06
686,83	11587,00
687,02	10886,39
687,20	10597,30
687,39	10236,20
687,58	10174,35
687,76	10275,03
687,95	10351,42
688,14	10472,53
688,33	10447,67
688,51	10631,46
688,70	10516,32
688,89	10514,19
689,08	10475,03
689,26	10517,59
689,45	10608,76
689,64	10736,48
689,83	10867,26
690,01	11015,00
690,20	11099,38
690,39	11315,52
690,57	11384,41
690,76	11532,48
690,95	11626,81
691,14	11779,83
691,32	11936,18
691,51	11981,52
691,70	12055,41
691,88	12254,39
692,07	12329,43
692,26	12335,04
692,44	12424,99
692,63	12415,11
692,82	12319,43
693,01	12375,51
693,19	12379,15
693,38	12328,03
693,57	12308,37
693,75	12321,97
693,94	12154,33
694,13	12281,71
694,31	12209,38
694,50	12301,00
694,69	12160,84
694,87	12322,14
695,06	12282,53
695,25	12370,14
695,43	12373,91
695,62	12368,58
695,81	12406,06
695,99	12524,89
696,18	12658,04
696,37	12781,86
696,55	12902,94
696,74	12880,58
696,93	12972,41
697,11	12996,08
697,30	12954,22
697,49	13057,64
697,67	12904,29
697,86	12928,91
698,05	12849,32
698,23	12787,43
698,42	12749,26
698,61	12692,25
698,79	12601,56
698,98	12509,08
699,17	12461,28
699,35	12407,95
699,54	12312,02
699,72	12297,64
699,91	12228,83
700,10	12198,32
700,28	12061,18
700,47	12036,85
700,66	12052,13
700,84	12032,92
701,03	11970,25
701,21	11983,65
701,40	11926,47
701,59	11874,41
701,77	11851,80
701,96	11866,18
702,15	11802,24
702,33	11863,72
702,52	11862,08
702,70	11922,29
702,89	11857,08
703,08	12000,65
703,26	11986,23
703,45	11987,21
703,63	12113,98
703,82	12093,62
704,01	12084,45
704,19	12068,23
704,38	12075,03
704,56	12178,70
704,75	12114,76
704,94	12128,69
705,12	12028,13
705,31	12044,96
705,49	12062,49
705,68	11972,02
705,86	12055,53
706,05	11940,68
706,24	12050,53
706,42	11974,76
706,61	11960,63
706,79	12007,73
706,98	11910,37
707,17	11981,64
707,35	12005,27
707,54	11947,28
707,72	12019,57
707,91	11795,07
708,09	11976,60
708,28	11873,34
708,46	11905,05
708,65	11856,26
708,84	11844,80
709,02	11797,57
709,21	11868,02
709,39	11840,00
709,58	11743,83
709,76	11826,20
709,95	11816,41
710,13	11790,69
710,32	11711,15
710,50	11793,97
710,69	11720,81
710,88	11764,23
711,06	11572,74
711,25	11720,20
711,43	11622,47
711,62	11689,72
711,80	11584,95
711,99	11535,63
712,17	11542,23
712,36	11542,47
712,54	11486,89
712,73	11446,55
712,91	11401,16
713,10	11351,36
713,28	11389,20
713,47	11356,81
713,65	11339,03
713,84	11233,27
714,02	11220,33
714,21	11161,63
714,39	11162,70
714,58	11020,61
714,76	11000,75
714,95	10865,83
715,13	10949,34
715,32	10844,45
715,50	10662,63
715,69	10817,41
715,87	10496,82
716,06	10387,42
716,24	10192,09
716,43	9876,25
716,61	9670,47
716,80	9460,30
716,98	9134,39
717,17	8893,88
717,35	8658,77
717,54	8518,49
717,72	8336,46
717,91	8209,28
718,09	8022,63
718,28	7877,10
718,46	7764,87
718,65	7629,30
718,83	7530,14
719,01	7429,70
719,20	7280,28
719,38	7322,10
719,57	7221,14
719,75	7144,67
719,94	7161,62
720,12	7167,24
720,31	7323,00
720,49	7361,83
720,68	7543,82
720,86	7735,34
721,04	7969,88
721,23	8150,18
721,41	8274,82
721,60	8505,09
721,78	8551,74
721,97	8664,79
722,15	8616,05
722,34	8657,42
722,52	8629,65
722,70	8577,84
722,89	8463,72
723,07	8256,51
723,26	8156,57
723,44	8065,39
723,63	7870,34
723,81	7779,66
723,99	7768,85
724,18	7708,31
724,36	7646,17
724,55	7616,03
724,73	7554,26
724,91	7528,82
725,10	7493,80
725,28	7476,56
725,47	7463,62
725,65	7430,03
725,83	7480,98
726,02	7448,09
726,20	7460,42
726,39	7461,24
726,57	7499,95
726,75	7436,99
726,94	7468,90
727,12	7427,61
727,31	7299,66
727,49	7370,60
727,67	7320,46
727,86	7295,32
728,04	7280,45
728,23	7371,09
728,41	7343,85
728,59	7350,61
728,78	7279,87
728,96	7312,80
729,14	7217,70
729,33	7294,99
729,51	7241,17
729,69	7292,49
729,88	7294,17
730,06	7323,58
730,25	7334,68
730,43	7289,42
730,61	7293,59
730,80	7283,48
730,98	7330,79
731,16	7380,26
731,35	7357,82
731,53	7432,20
731,71	7466,44
731,90	7532,31
732,08	7707,16
732,26	7713,51
732,45	7777,53
732,63	7908,52
732,81	7894,59
733,00	7970,12
733,18	7984,95
733,36	8078,21
733,55	8049,95
733,73	8158,94
733,91	8221,12
734,10	8207,93
734,28	8240,37
734,46	8262,00
734,65	8184,09
734,83	8201,99
735,01	8202,85
735,20	8172,17
735,38	8110,32
735,56	8126,54
735,75	8088,74
735,93	8043,85
736,11	8070,59
736,30	8029,51
736,48	7971,23
736,66	8043,81
736,84	8053,39
737,03	8027,34
737,21	8068,83
737,39	8072,11
737,58	8054,25
737,76	8080,51
737,94	7972,13
738,12	8004,40
738,31	7941,61
738,49	7945,63
738,67	7919,62
738,86	7845,03
739,04	7852,53
739,22	7906,84
739,40	7892,22
739,59	7910,24
739,77	7894,55
739,95	7916,18
740,14	7896,07
740,32	7917,16
740,50	7841,96
740,68	7888,00
740,87	7815,38
741,05	7836,96
741,23	7767,99
741,41	7796,58
741,60	7750,09
741,78	7791,58
741,96	7709,00
742,14	7805,22
742,33	7796,00
742,51	7828,36
742,69	7758,52
742,87	7797,85
743,06	7779,46
743,24	7822,91
743,42	7823,24
743,60	7824,18
743,79	7749,10
743,97	7744,27
744,15	7723,59
744,33	7658,22
744,52	7646,21
744,70	7614,18
744,88	7623,52
745,06	7640,60
745,24	7625,73
745,43	7631,84
745,61	7594,15
745,79	7561,59
745,97	7558,52
746,16	7531,57
746,34	7507,32
746,52	7524,44
746,70	7478,69
746,88	7477,99
747,07	7487,62
747,25	7409,47
747,43	7397,80
747,61	7430,36
747,79	7357,12
747,98	7354,75
748,16	7308,91
748,34	7374,08
748,52	7321,94
748,70	7285,61
748,89	7300,23
749,07	7186,85
749,25	7238,96
749,43	7195,33
749,61	7135,45
749,79	7223,76
749,98	7113,95
750,16	7207,83
750,34	7091,50
750,52	7177,07
750,70	7072,58
750,88	7128,32
751,07	7077,86
751,25	7106,45
751,43	7074,09
751,61	7072,54
751,79	7087,28
751,97	7086,75
752,16	7047,27
752,34	7067,58
752,52	7042,47
752,70	7084,95
752,88	7051,12
753,06	7038,79
753,25	7037,56
753,43	7064,71
753,61	7053,08
753,79	7141,92
753,97	7047,67
754,15	7079,83
754,33	6992,58
754,52	7083,23
754,70	7067,17
754,88	7064,18
755,06	7018,88
755,24	7050,05
755,42	6995,57
755,60	7052,22
755,78	7013,11
755,97	7014,21
756,15	7021,67
756,33	7034,61
756,51	7040,22
756,69	7017,28
756,87	7004,59
757,05	7052,79
757,23	6994,18
757,41	7026,13
757,60	7028,92
757,78	6972,02
757,96	6954,62
758,14	6915,50
758,32	6836,12
758,50	6722,46
758,68	6520,08
758,86	6196,91
759,04	5756,10
759,22	5277,29
759,41	4742,77
759,59	4147,14
759,77	3536,51
759,95	3050,00
760,13	2583,55
760,31	2261,29
760,49	1998,45
760,67	1861,32
760,85	1787,43
761,03	1783,04
761,21	1836,04
761,39	1934,02
761,57	2025,65
761,76	2073,53
761,94	2084,14
762,12	2033,18
762,30	1922,80
762,48	1817,74
762,66	1694,94
762,84	1587,30
763,02	1541,92
763,20	1557,03
763,38	1563,05
763,56	1615,11
763,74	1704,40
763,92	1824,45
764,10	1929,10
764,28	2073,16
764,46	2225,08
764,64	2360,04
764,82	2524,08
765,00	2699,43
765,19	2852,25
765,37	3058,48
765,55	3210,35
765,73	3405,20
765,91	3575,18
766,09	3791,32
766,27	3968,47
766,45	4153,03
766,63	4387,65
766,81	4561,69
766,99	4784,83
767,17	4939,05
767,35	5094,77
767,53	5247,96
767,71	5405,16
767,89	5511,41
768,07	5639,74
768,25	5710,76
768,43	5796,73
768,61	5902,49
768,79	5961,64
768,97	6019,88
769,15	6037,33
769,33	6143,78
769,51	6119,17
769,69	6212,88
769,87	6187,86
770,05	6255,73
770,23	6276,74
770,41	6330,03
770,59	6333,67
770,77	6392,24
770,95	6342,03
771,13	6340,68
771,31	6349,07
771,49	6340,51
771,67	6331,30
771,85	6362,71
772,03	6351,49
772,21	6330,97
772,38	6312,33
772,56	6304,88
772,74	6296,11
772,92	6317,61
773,10	6282,31
773,28	6320,36
773,46	6223,41
773,64	6286,85
773,82	6244,87
774,00	6216,12
774,18	6140,02
774,36	6146,98
774,54	6071,24
774,72	6106,02
774,90	6056,66
775,08	6077,18
775,26	6006,12
775,44	6063,95
775,62	6044,46
775,80	6056,42
775,97	5979,13
776,15	6087,59
776,33	6008,86
776,51	5986,62
776,69	5966,06
776,87	5917,07
777,05	5904,09
777,23	5896,63
777,41	5845,15
777,59	5831,47
777,77	5745,21
777,95	5811,19
778,13	5746,27
778,30	5752,42
778,48	5709,00
778,66	5754,71
778,84	5681,93
779,02	5681,97
779,20	5645,18
779,38	5618,19
779,56	5589,40
779,74	5611,39
779,92	5533,12
780,09	5554,75
780,27	5513,54
780,45	5517,39
780,63	5472,01
780,81	5491,75
780,99	5441,00
781,17	5457,14
781,35	5411,39
781,52	5418,11
781,70	5402,42
781,88	5390,79
782,06	5374,03
782,24	5363,75
782,42	5308,87
782,60	5309,60
782,78	5263,89
782,95	5245,95
783,13	5189,35
783,31	5214,05
783,49	5175,18
783,67	5185,74
783,85	5149,29
784,03	5119,06
784,20	5115,46
784,38	5128,85
784,56	5041,24
784,74	5058,48
784,92	5024,65
785,10	5015,23
785,28	4991,06
785,45	5007,24
785,63	4932,53
785,81	4951,62
785,99	4900,58
786,17	4921,80
786,35	4865,77
786,52	4828,66
786,70	4807,48
786,88	4779,88
787,06	4753,87
787,24	4746,99
787,41	4669,53
787,59	4686,78
787,77	4641,93
787,95	4631,85
788,13	4597,53
788,31	4590,93
788,48	4542,80
788,66	4527,81
788,84	4480,42
789,02	4442,04
789,20	4412,18
789,37	4409,28
789,55	4351,85
789,73	4347,47
789,91	4328,10
790,09	4327,60
790,26	4339,24
790,44	4301,96
790,62	4282,67
790,80	4248,76
790,98	4226,52
791,15	4188,63
791,33	4216,77
791,51	4176,83
791,69	4130,22
791,86	4158,11
792,04	4099,05
792,22	4101,67
792,40	4085,29
792,58	4086,56
792,75	4042,08
792,93	4025,00
793,11	4065,34
793,29	4032,08
793,46	4028,48
793,64	4014,06
793,82	4006,65
794,00	4018,48
794,17	3994,89
794,35	3960,65
794,53	3936,56
794,71	3973,51
794,88	3949,10
795,06	3936,61
795,24	3864,35
795,42	3873,69
795,59	3831,22
795,77	3803,94
795,95	3787,64
796,13	3781,57
796,30	3747,05
796,48	3762,81
796,66	3749,22
796,83	3769,25
797,01	3733,00
797,19	3758,51
797,37	3736,11
797,54	3752,17
797,72	3722,96
797,90	3725,91
798,08	3679,18
798,25	3695,97
798,43	3686,96
798,61	3662,10
798,78	3650,83
798,96	3610,45
799,14	3606,60
799,31	3585,05
799,49	3530,70
799,67	3510,34
799,85	3510,14
800,02	3498,67
800,20	3484,33
800,38	3456,15
800,55	3421,13
800,73	3459,80
800,91	3433,05
801,08	3417,20
801,26	3402,29
801,44	3393,61
801,61	3372,88
801,79	3347,08
801,97	3334,05
802,15	3348,84
802,32	3308,00
802,50	3322,01
802,68	3258,03
802,85	3314,68
803,03	3266,76
803,21	3278,47
803,38	3228,75
803,56	3249,51
803,74	3223,54
803,91	3218,92
804,09	3192,13
804,26	3191,76
804,44	3174,19
804,62	3173,00
804,79	3182,71
804,97	3185,90
805,15	3139,70
805,32	3201,96
805,50	3171,93
805,68	3165,09
805,85	3152,81
806,03	3170,50
806,21	3148,10
806,38	3154,90
806,56	3117,75
806,73	3136,34
806,91	3087,89
807,09	3097,51
807,26	3078,55
807,44	3069,86
807,62	3072,61
807,79	3035,38
807,97	3013,26
808,14	3032,26
808,32	2989,50
808,50	2976,85
808,67	2963,70
808,85	2923,72
809,02	2897,67
809,20	2911,06
809,38	2864,21
809,55	2855,20
809,73	2826,98
809,90	2813,87
810,08	2818,78
810,26	2796,38
810,43	2762,63
810,61	2776,64
810,78	2736,29
810,96	2702,62
811,14	2683,29
811,31	2701,89
811,49	2651,91
811,66	2645,77
811,84	2651,96
812,02	2589,66
812,19	2561,03
812,37	2547,55
812,54	2501,06
812,72	2476,98
812,89	2424,96
813,07	2416,15
813,25	2331,41
813,42	2343,29
813,60	2287,62
813,77	2261,90
813,95	2199,31
814,12	2201,89
814,30	2146,27
814,47	2121,74
814,65	2102,81
814,83	2071,40
815,00	2030,60
815,18	2002,83
815,35	1993,04
815,53	1964,33
815,70	1942,21
815,88	1885,52
816,05	1866,48
816,23	1862,87
816,40	1842,52
816,58	1830,97
816,75	1825,52
816,93	1826,38
817,10	1812,74
817,28	1788,86
817,46	1770,51
817,63	1752,98
817,81	1742,25
817,98	1752,57
818,16	1747,61
818,33	1751,46
818,51	1732,83
818,68	1747,70
818,86	1760,72
819,03	1751,05
819,21	1727,05
819,38	1747,33
819,56	1760,35
819,73	1783,99
819,91	1783,62
820,08	1836,78
820,26	1859,15
820,43	1872,62
820,61	1858,41
820,78	1883,07
820,96	1887,12
821,13	1887,49
821,31	1881,35
821,48	1853,82
821,66	1834,16
821,83	1785,87
822,00	1746,30
822,18	1716,12
822,35	1639,44
822,53	1612,61
822,70	1588,28
822,88	1566,20
823,05	1588,08
823,23	1593,52
823,40	1610,03
823,58	1643,82
823,75	1667,87
823,93	1684,04
824,10	1703,30
824,28	1709,44
824,45	1725,74
824,62	1749,95
824,80	1732,01
824,97	1747,61
825,15	1729,06
825,32	1725,29
825,50	1734,06
825,67	1722,96
825,85	1735,69
826,02	1722,75
826,19	1718,04
826,37	1729,55
826,54	1721,11
826,72	1728,61
826,89	1688,14
827,07	1687,65
827,24	1651,44
827,41	1658,69
827,59	1635,02
827,76	1650,70
827,94	1624,12
828,11	1621,79
828,28	1631,33
828,46	1615,81
828,63	1613,76
828,81	1598,28
828,98	1601,27
829,15	1579,19
829,33	1572,68
829,50	1590,33
829,68	1564,53
829,85	1570,42
830,02	1571,90
830,20	1573,29
830,37	1561,29
830,55	1564,85
830,72	1578,86
830,89	1550,84
831,07	1556,58
831,24	1543,96
831,42	1547,32
831,59	1541,59
831,76	1532,58
831,94	1548,51
832,11	1533,85
832,28	1527,87
832,46	1524,63
832,63	1515,74
832,81	1540,52
832,98	1511,69
833,15	1485,06
833,33	1511,73
833,50	1485,72
833,67	1505,26
833,85	1502,10
834,02	1510,79
834,19	1489,82
834,37	1503,29
834,54	1511,93
834,71	1520,74
834,89	1535,61
835,06	1522,42
835,23	1519,76
835,41	1512,59
835,58	1512,92
835,75	1527,33
835,93	1508,12
836,10	1515,82
836,27	1513,12
836,45	1535,89
836,62	1525,94
836,79	1517,34
836,97	1505,46
837,14	1513,41
837,31	1503,66
837,49	1506,28
837,66	1486,74
837,83	1513,90
838,01	1516,56
838,18	1499,24
838,35	1486,62
838,53	1493,83
838,70	1477,45
838,87	1483,55
839,04	1477,73
839,22	1494,48
839,39	1497,11
839,56	1486,91
839,74	1497,88
839,91	1470,32
840,08	1477,20
840,26	1483,38
840,43	1464,30
840,60	1473,64
840,77	1452,83
840,95	1470,20
841,12	1443,33
841,29	1443,82
841,46	1440,30
841,64	1451,35
841,81	1436,24
841,98	1439,52
842,16	1431,49
842,33	1440,87
842,50	1406,75
842,67	1427,88
842,85	1398,89
843,02	1406,63
843,19	1390,86
843,36	1384,75
843,54	1395,57
843,71	1402,78
843,88	1379,06
844,05	1371,16
844,23	1373,49
844,40	1368,04
844,57	1378,08
844,74	1376,77
844,92	1356,25
845,09	1356,53
845,26	1326,31
845,43	1355,26
845,61	1344,12
845,78	1342,73
845,95	1326,18
846,12	1335,97
846,29	1327,66
846,47	1328,68
846,64	1331,34
846,81	1319,42
846,98	1312,54
847,16	1314,14
847,33	1315,16
847,50	1293,37
847,67	1307,42
847,84	1277,11
848,02	1290,06
848,19	1303,65
848,36	1297,22
848,53	1275,43
848,70	1258,76
848,88	1253,36
849,05	1232,63
849,22	1227,88
849,39	1217,31
849,56	1219,93
849,74	1216,37
849,91	1190,24
850,08	1178,81
850,25	1183,97
850,42	1173,85
850,60	1181,39
850,77	1169,68
850,94	1174,26
851,11	1161,69
851,28	1163,45
851,45	1159,76
851,63	1140,76
851,80	1149,98
851,97	1143,63
852,14	1144,20
852,31	1116,63
852,48	1129,74
852,66	1130,93
852,83	1107,79
853,00	1113,85
853,17	1096,52
853,34	1088,04
853,51	1070,64
853,68	1069,61
853,86	1051,30
854,03	1028,74
854,20	1018,00
854,37	1011,94
854,54	1009,89
854,71	1019,19
854,88	1004,12
855,06	1017,02
855,23	1009,12
855,40	1018,66
855,57	1014,40
855,74	1010,14
855,91	1018,70
856,08	1007,72
856,25	1022,84
856,43	1013,58
856,60	1020,42
856,77	1009,08
856,94	1017,39
857,11	1030,33
857,28	1006,21
857,45	996,46
857,62	1017,72
857,79	1008,34
857,97	1001,29
858,14	1010,10
858,31	1002,11
858,48	1005,96
858,65	996,50
858,82	998,67
858,99	1015,14
859,16	1016,37
859,33	992,65
859,50	1003,96
859,67	992,12
859,85	997,24
860,02	991,95
860,19	985,20
860,36	980,24
860,53	975,94
860,70	982,82
860,87	974,96
861,04	970,25
861,21	968,98
861,38	958,90
861,55	963,32
861,72	959,23
861,89	953,53
862,06	964,96
862,23	956,61
862,41	936,70
862,58	946,20
862,75	952,67
862,92	931,66
863,09	944,81
863,26	931,70
863,43	929,12
863,60	924,21
863,77	920,07
863,94	951,85
864,11	911,02
864,28	913,68
864,45	892,87
864,62	894,88
864,79	902,54
864,96	909,99
865,13	877,39
865,30	884,31
865,47	873,05
865,64	866,74
865,81	843,60
865,98	844,42
866,15	832,66
866,32	815,95
866,49	801,33
866,66	810,18
866,83	799,98
867,00	808,54
867,17	792,07
867,34	814,85
867,51	781,75
867,68	783,27
867,85	796,86
868,02	800,84
868,19	792,85
868,36	792,07
868,53	772,33
868,70	797,07
868,87	782,49
869,04	775,48
869,21	777,25
869,38	773,60
869,55	782,08
869,72	782,49
869,89	769,50
870,06	777,82
870,23	780,40
870,40	783,76
870,57	792,65
870,74	774,21
870,91	772,08
871,08	766,96
871,25	768,03
871,42	775,07
871,59	775,69
871,76	755,54
871,93	759,76
872,10	752,63
872,27	771,10
872,44	758,40
872,60	755,74
872,77	747,02
872,94	737,15
873,11	755,45
873,28	747,22
873,45	742,47
873,62	724,45
873,79	739,23
873,96	717,03
874,13	741,61
874,30	715,52
874,47	719,00
874,64	706,84
874,81	714,99
874,97	691,03
875,14	705,20
875,31	705,98
875,48	685,58
875,65	698,32
875,82	685,41
875,99	688,53
876,16	681,85
876,33	688,32
876,50	691,23
876,67	670,75
876,83	684,43
877,00	662,19
877,17	682,06
877,34	666,65
877,51	652,73
877,68	660,76
877,85	653,96
878,02	651,70
878,19	654,78
878,35	652,73
878,52	643,80
878,69	644,78
878,86	635,16
879,03	650,52
879,20	636,14
879,37	629,50
879,54	624,96
879,70	622,34
879,87	627,33
880,04	615,95
880,21	619,55
880,38	623,98
880,55	600,22
880,72	596,29
880,89	603,99
881,05	606,65
881,22	597,39
881,39	597,47
881,56	596,04
881,73	605,91
881,90	591,66
882,06	585,76
882,23	601,37
882,40	580,68
882,57	601,90
882,74	573,80
882,91	576,30
883,07	573,68
883,24	559,30
883,41	574,33
883,58	556,92
883,75	562,70
883,92	559,14
884,08	563,31
884,25	560,61
884,42	563,15
884,59	561,55
884,76	555,74
884,92	536,90
885,09	550,17
885,26	541,93
885,43	550,53
885,60	542,10
885,76	543,00
885,93	553,44
886,10	538,70
886,27	542,88
886,44	539,48
886,60	530,55
886,77	531,69
886,94	529,73
887,11	527,39
887,28	525,10
887,44	517,89
887,61	510,27
887,78	506,01
887,95	504,33
888,12	503,92
888,28	503,02
888,45	510,39
888,62	498,60
888,79	501,26
888,95	501,06
889,12	487,66
889,29	491,10
889,46	484,26
889,62	490,28
889,79	470,38
889,96	479,84
890,13	477,01
890,29	477,83
890,46	480,33
890,63	460,38
890,80	470,66
890,96	476,85
891,13	475,83
891,30	467,39
891,47	476,23
891,63	460,79
891,80	461,08
891,97	450,64
892,14	469,07
892,30	458,58
892,47	465,59
892,64	463,78
892,80	438,80
892,97	444,41
893,14	442,98
893,31	437,16
893,47	428,52
893,64	420,73
893,81	432,82
893,97	422,17
894,14	406,60

