SpectraSuite Datei
++++++++++++++++++++++++++++++++++++
Datum: Mon Jan 08 17:07:34 CET 2018
Benutzer: Praktikum-Pc1
Dark-Spektrum vorhanden: Ja
Referenz-Spektrum vorhanden: Nein
Zahl der probierten Teilspektren: 1
Spektrometer: USB4H10187
Integrationszeit (usec): 5000 (USB4H10187)
Spektren Durchschnitt berechnet: 400 (USB4H10187)
Boxcar Glâ€°ttung: 0 (USB4H10187)
Dunkelstromkorrektur: Nein (USB4H10187)
Puls/Lampe aktiviert: Nein (USB4H10187)
Correct for Detector Non-linearity: Nein (USB4H10187)
Streulichtkorrektur: Nein (USB4H10187)
Anzahl Pixel in verarbeitetem Spektrum: 3648
>>>>>Begin Processed Spectral Data<<<<<
176,80	1,22
177,02	1,22
177,24	1,22
177,46	0,19
177,68	-0,15
177,91	2,29
178,13	4,02
178,35	0,40
178,57	-3,19
178,79	2,74
179,02	1,68
179,24	-5,47
179,46	1,58
179,68	1,44
179,90	0,51
180,12	4,97
180,35	0,26
180,57	-0,21
180,79	-0,98
181,01	3,96
181,23	-2,75
181,46	0,32
181,68	-3,12
181,90	2,21
182,12	3,11
182,34	0,18
182,56	-6,37
182,79	-3,09
183,01	3,11
183,23	-1,69
183,45	1,88
183,67	2,22
183,89	0,54
184,12	-1,38
184,34	0,88
184,56	2,89
184,78	0,13
185,00	3,77
185,22	-0,12
185,45	-1,00
185,67	0,39
185,89	-3,66
186,11	1,78
186,33	1,60
186,55	1,54
186,77	3,19
187,00	1,04
187,22	2,26
187,44	-1,67
187,66	2,46
187,88	-2,26
188,10	1,45
188,32	1,41
188,55	-1,14
188,77	0,90
188,99	0,16
189,21	1,01
189,43	0,80
189,65	3,43
189,87	3,53
190,10	-1,44
190,32	-1,51
190,54	-0,17
190,76	2,48
190,98	-1,70
191,20	-1,26
191,42	-0,96
191,64	1,45
191,87	1,55
192,09	-3,39
192,31	0,28
192,53	2,50
192,75	5,05
192,97	6,82
193,19	1,39
193,41	2,84
193,64	2,08
193,86	1,26
194,08	1,57
194,30	1,33
194,52	1,34
194,74	0,40
194,96	-0,05
195,18	-3,43
195,40	2,09
195,63	-1,88
195,85	5,02
196,07	3,48
196,29	0,43
196,51	1,40
196,73	-0,32
196,95	-0,04
197,17	0,42
197,39	2,59
197,61	3,22
197,84	-1,97
198,06	1,27
198,28	0,39
198,50	-5,23
198,72	-3,93
198,94	-0,75
199,16	2,05
199,38	-1,31
199,60	-3,37
199,82	0,27
200,04	-1,94
200,26	0,24
200,49	-0,98
200,71	-6,53
200,93	0,67
201,15	2,74
201,37	-4,74
201,59	1,75
201,81	-3,51
202,03	2,02
202,25	0,60
202,47	-0,05
202,69	1,40
202,91	-0,30
203,13	3,33
203,35	-1,43
203,58	0,81
203,80	2,19
204,02	0,72
204,24	-0,50
204,46	0,28
204,68	0,33
204,90	-1,00
205,12	4,89
205,34	0,44
205,56	-0,00
205,78	3,29
206,00	1,97
206,22	-2,94
206,44	2,87
206,66	1,03
206,88	3,09
207,10	2,19
207,32	0,22
207,54	0,67
207,76	-2,47
207,99	4,65
208,21	-0,66
208,43	3,16
208,65	-1,03
208,87	-1,62
209,09	2,44
209,31	3,07
209,53	-3,30
209,75	0,74
209,97	-0,72
210,19	-0,52
210,41	2,03
210,63	3,08
210,85	1,90
211,07	2,02
211,29	1,87
211,51	0,74
211,73	1,78
211,95	0,39
212,17	-3,63
212,39	-0,02
212,61	0,25
212,83	-0,36
213,05	-2,09
213,27	0,30
213,49	-0,09
213,71	0,12
213,93	0,37
214,15	0,37
214,37	2,15
214,59	0,85
214,81	-2,53
215,03	0,41
215,25	-2,06
215,47	0,52
215,69	6,15
215,91	1,63
216,13	-0,14
216,35	-0,50
216,57	-1,67
216,79	3,39
217,01	1,89
217,23	-0,18
217,45	-0,19
217,67	-1,59
217,89	-2,30
218,11	-0,77
218,33	0,62
218,55	4,68
218,77	1,81
218,99	-0,09
219,21	0,72
219,43	2,84
219,65	4,73
219,87	-0,29
220,09	2,60
220,31	3,85
220,53	3,54
220,75	-0,63
220,97	0,33
221,19	2,82
221,41	1,33
221,63	-1,82
221,85	0,40
222,06	2,38
222,28	-1,44
222,50	0,32
222,72	-1,60
222,94	-0,13
223,16	-1,08
223,38	4,44
223,60	2,01
223,82	4,54
224,04	1,88
224,26	-4,64
224,48	-0,29
224,70	2,39
224,92	1,92
225,14	-1,37
225,36	1,21
225,58	2,21
225,80	2,81
226,02	-1,40
226,24	2,60
226,45	3,31
226,67	1,79
226,89	4,19
227,11	2,16
227,33	-0,82
227,55	0,82
227,77	-2,38
227,99	1,81
228,21	0,87
228,43	2,88
228,65	2,15
228,87	1,45
229,09	-0,07
229,31	3,24
229,52	0,81
229,74	-2,87
229,96	2,62
230,18	4,35
230,40	1,62
230,62	0,49
230,84	0,76
231,06	2,70
231,28	-2,49
231,50	-5,63
231,72	-3,83
231,94	-0,20
232,15	0,16
232,37	0,11
232,59	3,43
232,81	2,81
233,03	3,83
233,25	4,01
233,47	2,25
233,69	2,65
233,91	-3,30
234,13	-1,04
234,34	1,84
234,56	1,09
234,78	-1,03
235,00	1,23
235,22	-3,86
235,44	4,92
235,66	3,76
235,88	1,76
236,10	0,53
236,31	-2,30
236,53	2,38
236,75	0,07
236,97	-1,44
237,19	0,17
237,41	0,83
237,63	3,28
237,85	-0,72
238,07	-0,20
238,28	0,94
238,50	1,16
238,72	-1,18
238,94	-2,05
239,16	2,33
239,38	0,88
239,60	1,85
239,81	6,00
240,03	3,31
240,25	0,96
240,47	-0,30
240,69	-0,69
240,91	-0,24
241,13	1,72
241,34	-2,76
241,56	0,94
241,78	4,97
242,00	-0,00
242,22	4,20
242,44	3,37
242,66	0,25
242,87	4,36
243,09	3,02
243,31	1,73
243,53	0,56
243,75	0,25
243,97	1,53
244,19	-2,09
244,40	1,29
244,62	-0,25
244,84	1,19
245,06	-2,57
245,28	2,32
245,50	0,47
245,71	2,15
245,93	0,80
246,15	1,27
246,37	-0,90
246,59	2,60
246,81	-3,67
247,02	1,98
247,24	1,25
247,46	-0,91
247,68	0,30
247,90	1,70
248,11	1,66
248,33	-0,30
248,55	-2,34
248,77	1,06
248,99	3,14
249,21	-0,15
249,42	0,13
249,64	0,90
249,86	-0,69
250,08	3,78
250,30	2,40
250,51	-0,67
250,73	1,62
250,95	2,39
251,17	4,34
251,39	4,90
251,60	0,47
251,82	2,86
252,04	2,99
252,26	-2,21
252,48	1,86
252,69	0,42
252,91	3,50
253,13	1,37
253,35	-2,49
253,57	-2,05
253,78	-1,27
254,00	0,82
254,22	4,16
254,44	1,19
254,65	-0,22
254,87	3,03
255,09	0,74
255,31	0,09
255,53	9,79
255,74	-1,23
255,96	-3,45
256,18	1,43
256,40	0,99
256,61	0,24
256,83	0,55
257,05	-1,29
257,27	0,01
257,48	5,62
257,70	1,93
257,92	3,90
258,14	-2,00
258,36	0,33
258,57	2,54
258,79	5,34
259,01	3,29
259,23	0,14
259,44	3,24
259,66	0,94
259,88	0,58
260,10	-1,51
260,31	4,29
260,53	0,91
260,75	2,72
260,97	3,04
261,18	2,76
261,40	-1,36
261,62	0,03
261,84	5,46
262,05	1,01
262,27	1,82
262,49	5,99
262,71	3,03
262,92	0,26
263,14	-0,02
263,36	0,63
263,57	5,53
263,79	4,53
264,01	4,44
264,23	3,10
264,44	3,18
264,66	-1,44
264,88	3,04
265,10	-0,54
265,31	2,47
265,53	-0,38
265,75	2,73
265,96	2,81
266,18	1,71
266,40	0,72
266,62	0,99
266,83	1,31
267,05	2,22
267,27	1,02
267,48	1,46
267,70	0,63
267,92	-0,25
268,14	3,80
268,35	4,31
268,57	2,02
268,79	1,18
269,00	3,41
269,22	2,82
269,44	-0,12
269,65	-1,79
269,87	-1,21
270,09	3,88
270,31	6,39
270,52	4,67
270,74	-0,78
270,96	-0,85
271,17	-0,40
271,39	2,26
271,61	-4,42
271,82	6,01
272,04	3,45
272,26	-1,91
272,47	-3,51
272,69	2,83
272,91	1,37
273,12	3,91
273,34	3,29
273,56	-1,40
273,77	-1,67
273,99	3,21
274,21	-1,99
274,42	0,28
274,64	4,62
274,86	-1,15
275,08	0,68
275,29	2,37
275,51	0,37
275,72	0,89
275,94	3,70
276,16	-0,07
276,37	3,35
276,59	-1,24
276,81	2,99
277,02	5,52
277,24	4,77
277,46	0,41
277,67	-0,20
277,89	4,76
278,11	-0,47
278,32	1,92
278,54	1,13
278,76	-1,42
278,97	-3,90
279,19	-1,39
279,41	2,08
279,62	5,38
279,84	6,01
280,05	0,76
280,27	-0,76
280,49	3,29
280,70	0,18
280,92	1,52
281,14	4,05
281,35	0,31
281,57	0,51
281,79	7,62
282,00	2,14
282,22	2,29
282,43	2,93
282,65	2,25
282,87	5,00
283,08	2,19
283,30	0,05
283,52	2,51
283,73	1,34
283,95	5,37
284,16	0,04
284,38	7,28
284,60	4,97
284,81	3,54
285,03	4,21
285,24	6,46
285,46	3,67
285,68	4,14
285,89	3,40
286,11	-1,23
286,32	-4,46
286,54	0,11
286,76	3,35
286,97	0,91
287,19	3,55
287,40	1,75
287,62	-1,04
287,84	0,52
288,05	2,31
288,27	3,28
288,48	3,93
288,70	0,47
288,92	2,20
289,13	-1,29
289,35	2,24
289,56	3,54
289,78	2,06
289,99	4,20
290,21	5,07
290,43	2,88
290,64	4,62
290,86	2,29
291,07	0,87
291,29	1,80
291,51	-1,13
291,72	-0,18
291,94	3,09
292,15	1,35
292,37	0,87
292,58	0,54
292,80	-1,22
293,01	3,82
293,23	4,15
293,45	0,99
293,66	3,54
293,88	3,45
294,09	-1,61
294,31	1,97
294,52	-3,20
294,74	-0,82
294,96	0,21
295,17	-0,36
295,39	-2,01
295,60	0,36
295,82	3,48
296,03	0,50
296,25	1,36
296,46	-2,07
296,68	-0,60
296,89	6,64
297,11	-0,27
297,32	1,35
297,54	-2,19
297,76	5,38
297,97	1,20
298,19	3,31
298,40	-2,20
298,62	1,48
298,83	1,15
299,05	0,68
299,26	4,07
299,48	-1,84
299,69	-1,44
299,91	-1,02
300,12	0,42
300,34	-0,56
300,55	4,71
300,77	4,50
300,98	2,65
301,20	-2,06
301,41	5,15
301,63	3,22
301,84	4,34
302,06	-0,10
302,28	0,10
302,49	0,99
302,71	0,77
302,92	1,79
303,14	-2,67
303,35	4,97
303,57	2,51
303,78	1,05
304,00	1,05
304,21	1,84
304,43	4,66
304,64	3,18
304,86	1,74
305,07	3,20
305,29	-0,05
305,50	2,41
305,71	0,89
305,93	4,16
306,14	2,34
306,36	1,87
306,57	2,35
306,79	-5,19
307,00	-1,67
307,22	3,79
307,43	1,80
307,65	0,61
307,86	-0,84
308,08	1,46
308,29	5,32
308,51	2,20
308,72	-0,79
308,94	1,99
309,15	3,57
309,37	0,27
309,58	6,07
309,80	2,04
310,01	-1,98
310,22	-0,32
310,44	0,34
310,65	2,70
310,87	0,59
311,08	3,25
311,30	-1,82
311,51	4,05
311,73	-2,12
311,94	4,05
312,16	0,79
312,37	1,35
312,58	2,53
312,80	-0,69
313,01	2,05
313,23	2,37
313,44	1,38
313,66	-0,42
313,87	-0,94
314,09	-0,12
314,30	3,10
314,51	3,30
314,73	1,64
314,94	2,47
315,16	-0,08
315,37	0,34
315,59	-1,54
315,80	3,42
316,01	3,30
316,23	-0,59
316,44	-0,76
316,66	-3,28
316,87	1,04
317,09	-1,51
317,30	1,25
317,51	7,16
317,73	1,70
317,94	0,98
318,16	-1,95
318,37	-0,88
318,58	1,43
318,80	3,81
319,01	2,17
319,23	-1,26
319,44	3,58
319,66	-5,12
319,87	6,26
320,08	0,49
320,30	5,86
320,51	0,56
320,73	0,20
320,94	1,54
321,15	2,06
321,37	4,78
321,58	-1,96
321,80	-1,68
322,01	1,92
322,22	-0,40
322,44	2,08
322,65	2,17
322,86	3,39
323,08	-1,70
323,29	2,22
323,51	2,48
323,72	1,84
323,93	-0,54
324,15	2,68
324,36	1,13
324,58	6,00
324,79	0,78
325,00	1,74
325,22	0,61
325,43	1,01
325,64	2,71
325,86	0,80
326,07	0,78
326,28	-2,30
326,50	0,39
326,71	-0,66
326,93	3,31
327,14	4,50
327,35	2,54
327,57	-1,62
327,78	4,62
327,99	0,59
328,21	1,03
328,42	3,74
328,63	2,16
328,85	1,65
329,06	6,25
329,27	24,59
329,49	59,83
329,70	95,43
329,91	113,19
330,13	122,96
330,34	106,69
330,56	79,69
330,77	47,58
330,98	30,99
331,20	8,78
331,41	1,78
331,62	1,63
331,84	0,33
332,05	3,04
332,26	1,90
332,48	-1,80
332,69	-0,93
332,90	2,60
333,11	0,87
333,33	0,96
333,54	-1,29
333,75	3,47
333,97	-0,81
334,18	0,43
334,39	3,39
334,61	-4,14
334,82	1,49
335,03	5,37
335,25	2,65
335,46	-0,18
335,67	2,66
335,89	1,78
336,10	1,21
336,31	2,41
336,53	3,15
336,74	4,54
336,95	1,94
337,16	-3,81
337,38	0,48
337,59	1,09
337,80	0,51
338,02	2,58
338,23	0,59
338,44	1,60
338,65	4,47
338,87	0,77
339,08	1,54
339,29	1,67
339,51	0,15
339,72	3,49
339,93	6,38
340,14	-0,36
340,36	3,27
340,57	5,07
340,78	-1,54
341,00	-4,21
341,21	8,63
341,42	4,26
341,63	3,95
341,85	3,71
342,06	-0,70
342,27	3,28
342,49	-1,42
342,70	0,08
342,91	5,49
343,12	3,14
343,34	2,38
343,55	2,40
343,76	5,48
343,97	0,64
344,19	-1,04
344,40	1,55
344,61	1,31
344,82	-0,92
345,04	3,43
345,25	4,08
345,46	4,49
345,67	0,42
345,89	-2,62
346,10	0,28
346,31	1,77
346,52	0,31
346,74	2,68
346,95	1,83
347,16	2,61
347,37	3,41
347,59	-0,31
347,80	0,60
348,01	0,94
348,22	3,64
348,43	1,13
348,65	-0,09
348,86	0,25
349,07	3,71
349,28	-0,18
349,50	-3,23
349,71	-0,12
349,92	3,24
350,13	1,75
350,34	5,49
350,56	2,90
350,77	2,14
350,98	1,08
351,19	3,23
351,41	-0,42
351,62	-0,75
351,83	3,98
352,04	4,71
352,25	1,25
352,47	-0,37
352,68	-0,37
352,89	0,63
353,10	3,12
353,31	-0,66
353,53	-0,95
353,74	5,02
353,95	-3,90
354,16	0,44
354,37	1,82
354,59	2,70
354,80	3,15
355,01	4,82
355,22	0,22
355,43	-0,80
355,65	3,31
355,86	5,73
356,07	1,19
356,28	1,24
356,49	3,99
356,70	2,46
356,92	3,48
357,13	4,40
357,34	4,14
357,55	4,11
357,76	3,99
357,98	4,57
358,19	1,90
358,40	1,87
358,61	3,89
358,82	4,18
359,03	-1,08
359,25	3,83
359,46	5,22
359,67	1,70
359,88	0,22
360,09	3,08
360,30	0,41
360,51	0,79
360,73	0,69
360,94	1,50
361,15	1,56
361,36	1,59
361,57	0,99
361,78	0,54
362,00	4,85
362,21	6,05
362,42	2,51
362,63	4,64
362,84	-0,61
363,05	8,39
363,26	1,57
363,48	1,24
363,69	3,40
363,90	-1,55
364,11	0,96
364,32	0,43
364,53	2,11
364,74	5,53
364,95	4,78
365,17	3,46
365,38	4,41
365,59	1,85
365,80	0,82
366,01	3,26
366,22	5,55
366,43	3,53
366,64	3,26
366,86	-1,10
367,07	-0,95
367,28	2,55
367,49	1,92
367,70	0,42
367,91	1,31
368,12	1,50
368,33	-0,14
368,54	4,50
368,76	-0,73
368,97	0,54
369,18	2,15
369,39	1,93
369,60	3,24
369,81	0,44
370,02	1,16
370,23	-0,44
370,44	7,33
370,65	-1,77
370,87	3,84
371,08	2,52
371,29	1,42
371,50	0,22
371,71	2,84
371,92	0,97
372,13	0,95
372,34	3,33
372,55	0,74
372,76	-0,44
372,97	6,09
373,18	6,85
373,40	5,26
373,61	1,35
373,82	0,53
374,03	3,51
374,24	1,47
374,45	3,94
374,66	3,23
374,87	4,37
375,08	0,28
375,29	2,53
375,50	2,98
375,71	0,93
375,92	1,10
376,13	3,51
376,34	4,44
376,56	2,59
376,77	1,10
376,98	1,60
377,19	1,43
377,40	2,11
377,61	2,84
377,82	-2,12
378,03	-1,23
378,24	0,93
378,45	0,32
378,66	5,89
378,87	0,86
379,08	7,61
379,29	4,66
379,50	1,21
379,71	2,12
379,92	7,05
380,13	-1,25
380,34	1,26
380,55	3,18
380,76	2,41
380,97	5,30
381,18	5,75
381,39	1,02
381,60	2,24
381,81	2,05
382,02	3,11
382,24	3,48
382,45	-0,86
382,66	-0,05
382,87	2,52
383,08	0,33
383,29	0,81
383,50	0,94
383,71	0,97
383,92	3,23
384,13	-0,21
384,34	-2,77
384,55	2,06
384,76	6,75
384,97	1,12
385,18	-3,46
385,39	0,31
385,60	1,40
385,81	-0,19
386,02	4,96
386,23	-3,14
386,44	3,41
386,65	0,99
386,86	0,61
387,07	3,85
387,28	1,24
387,49	3,41
387,70	1,38
387,91	3,39
388,12	-0,93
388,32	3,88
388,53	0,24
388,74	2,74
388,95	2,05
389,16	2,46
389,37	2,11
389,58	2,22
389,79	2,36
390,00	-1,31
390,21	5,81
390,42	0,66
390,63	2,94
390,84	0,53
391,05	4,50
391,26	1,00
391,47	2,15
391,68	1,05
391,89	-4,50
392,10	1,27
392,31	2,20
392,52	-0,49
392,73	1,25
392,94	2,75
393,15	5,17
393,36	0,87
393,57	1,76
393,78	2,27
393,98	2,46
394,19	3,00
394,40	0,46
394,61	7,14
394,82	3,01
395,03	-0,67
395,24	1,36
395,45	-0,39
395,66	0,98
395,87	0,80
396,08	3,19
396,29	-1,46
396,50	-0,29
396,71	6,09
396,92	3,88
397,12	0,63
397,33	2,74
397,54	3,17
397,75	0,45
397,96	1,20
398,17	0,21
398,38	-0,32
398,59	1,91
398,80	1,66
399,01	1,57
399,22	1,41
399,43	-0,23
399,63	1,82
399,84	2,54
400,05	5,21
400,26	0,24
400,47	2,47
400,68	5,15
400,89	2,45
401,10	-0,69
401,31	-0,97
401,52	6,84
401,72	3,33
401,93	5,67
402,14	3,26
402,35	4,38
402,56	-1,64
402,77	-0,25
402,98	-2,33
403,19	0,35
403,40	2,82
403,60	3,21
403,81	3,66
404,02	-2,35
404,23	0,87
404,44	2,44
404,65	0,36
404,86	4,95
405,07	2,01
405,27	1,23
405,48	0,92
405,69	4,57
405,90	4,49
406,11	2,90
406,32	9,53
406,53	5,81
406,74	-1,98
406,94	5,51
407,15	3,85
407,36	3,13
407,57	4,34
407,78	-2,59
407,99	2,18
408,20	4,59
408,40	-0,90
408,61	3,40
408,82	1,77
409,03	7,07
409,24	5,29
409,45	-0,41
409,65	2,84
409,86	-0,95
410,07	3,54
410,28	-0,66
410,49	-2,17
410,70	1,43
410,90	4,51
411,11	5,02
411,32	4,30
411,53	3,05
411,74	3,28
411,95	4,22
412,15	4,47
412,36	0,44
412,57	5,77
412,78	-0,34
412,99	4,66
413,20	3,93
413,40	-2,82
413,61	1,16
413,82	0,86
414,03	-1,31
414,24	5,23
414,44	1,22
414,65	2,32
414,86	2,30
415,07	7,01
415,28	3,64
415,48	14,59
415,69	16,78
415,90	11,83
416,11	11,45
416,32	6,50
416,53	12,15
416,73	2,33
416,94	0,87
417,15	3,91
417,36	0,80
417,56	5,49
417,77	3,58
417,98	7,20
418,19	4,75
418,40	3,43
418,60	4,45
418,81	3,22
419,02	4,84
419,23	6,13
419,44	6,70
419,64	11,71
419,85	17,60
420,06	15,06
420,27	9,37
420,47	6,84
420,68	7,54
420,89	5,19
421,10	0,95
421,30	0,45
421,51	4,37
421,72	3,77
421,93	6,58
422,14	2,69
422,34	2,81
422,55	5,28
422,76	4,10
422,97	3,26
423,17	1,62
423,38	5,88
423,59	6,45
423,80	2,75
424,00	1,96
424,21	2,82
424,42	2,65
424,63	2,83
424,83	0,05
425,04	2,88
425,25	3,23
425,46	6,97
425,66	0,59
425,87	5,95
426,08	6,49
426,28	8,17
426,49	7,36
426,70	10,75
426,91	6,22
427,11	6,50
427,32	11,45
427,53	4,02
427,74	3,75
427,94	7,44
428,15	4,87
428,36	0,10
428,56	2,53
428,77	4,01
428,98	1,78
429,19	4,81
429,39	3,19
429,60	9,68
429,81	2,11
430,01	6,15
430,22	9,72
430,43	2,57
430,64	-0,62
430,84	3,16
431,05	1,18
431,26	-2,40
431,46	-0,80
431,67	4,46
431,88	3,43
432,08	4,34
432,29	3,93
432,50	3,04
432,70	4,16
432,91	3,90
433,12	3,77
433,33	5,00
433,53	2,69
433,74	6,98
433,95	3,32
434,15	2,84
434,36	6,02
434,57	7,53
434,77	5,58
434,98	5,05
435,19	6,28
435,39	1,18
435,60	4,33
435,81	3,60
436,01	0,36
436,22	1,80
436,43	4,08
436,63	0,31
436,84	3,47
437,05	1,79
437,25	3,21
437,46	-2,11
437,67	1,75
437,87	2,17
438,08	0,61
438,29	1,56
438,49	1,00
438,70	0,51
438,91	6,07
439,11	4,23
439,32	1,80
439,52	4,89
439,73	1,12
439,94	4,38
440,14	2,91
440,35	3,16
440,56	-0,67
440,76	1,40
440,97	2,73
441,18	6,09
441,38	2,17
441,59	0,36
441,79	4,46
442,00	2,74
442,21	2,55
442,41	4,11
442,62	0,91
442,83	4,16
443,03	5,77
443,24	0,11
443,44	3,29
443,65	4,90
443,86	-0,16
444,06	0,53
444,27	5,28
444,48	-0,53
444,68	3,48
444,89	-1,34
445,09	6,24
445,30	1,87
445,51	-2,43
445,71	4,14
445,92	2,09
446,12	2,39
446,33	-0,15
446,54	3,25
446,74	4,53
446,95	2,08
447,15	2,74
447,36	2,28
447,57	2,54
447,77	-0,46
447,98	1,64
448,18	-1,01
448,39	1,15
448,59	1,58
448,80	4,52
449,01	-1,34
449,21	3,43
449,42	4,77
449,62	8,19
449,83	7,77
450,04	5,09
450,24	3,53
450,45	-1,06
450,65	4,22
450,86	-0,75
451,06	3,75
451,27	4,61
451,47	3,93
451,68	7,31
451,89	4,64
452,09	1,09
452,30	4,84
452,50	1,66
452,71	0,51
452,91	3,28
453,12	2,90
453,33	1,05
453,53	0,63
453,74	4,61
453,94	-0,28
454,15	0,70
454,35	4,86
454,56	4,02
454,76	11,26
454,97	9,50
455,17	14,97
455,38	13,79
455,58	15,67
455,79	9,31
456,00	4,90
456,20	6,00
456,41	3,32
456,61	5,83
456,82	0,91
457,02	2,97
457,23	4,49
457,43	0,18
457,64	0,46
457,84	2,16
458,05	0,40
458,25	4,32
458,46	5,11
458,66	3,08
458,87	1,20
459,07	-0,58
459,28	1,34
459,48	7,96
459,69	-2,18
459,89	2,50
460,10	1,79
460,30	3,24
460,51	4,78
460,71	2,27
460,92	-1,73
461,12	3,98
461,33	5,32
461,53	4,00
461,74	3,98
461,94	0,73
462,15	4,64
462,35	0,07
462,56	1,63
462,76	-1,88
462,97	-0,01
463,17	3,57
463,38	7,00
463,58	4,52
463,79	2,36
463,99	0,61
464,20	2,15
464,40	6,47
464,61	-0,29
464,81	-0,35
465,02	1,30
465,22	5,40
465,43	1,96
465,63	2,68
465,83	3,04
466,04	9,10
466,24	7,14
466,45	7,50
466,65	4,27
466,86	6,54
467,06	2,90
467,27	8,45
467,47	4,40
467,68	5,43
467,88	0,00
468,08	0,72
468,29	4,78
468,49	3,47
468,70	4,45
468,90	-1,02
469,11	4,10
469,31	7,88
469,52	3,27
469,72	1,66
469,92	1,48
470,13	5,63
470,33	0,92
470,54	6,36
470,74	1,12
470,95	3,59
471,15	7,80
471,35	0,45
471,56	3,11
471,76	2,10
471,97	1,14
472,17	-0,27
472,38	3,90
472,58	2,49
472,78	0,68
472,99	4,84
473,19	3,39
473,40	4,21
473,60	-0,18
473,80	1,29
474,01	-0,37
474,21	0,69
474,42	-1,48
474,62	0,84
474,83	4,88
475,03	0,04
475,23	0,86
475,44	3,22
475,64	3,41
475,85	1,25
476,05	8,15
476,25	4,90
476,46	-0,77
476,66	1,88
476,86	7,56
477,07	4,00
477,27	1,24
477,48	7,78
477,68	5,44
477,88	1,00
478,09	4,59
478,29	2,85
478,50	2,27
478,70	5,91
478,90	0,46
479,11	2,62
479,31	0,40
479,51	3,41
479,72	4,90
479,92	2,90
480,12	2,01
480,33	-0,12
480,53	5,91
480,74	4,23
480,94	-0,99
481,14	3,56
481,35	1,68
481,55	5,61
481,75	3,80
481,96	4,39
482,16	1,85
482,36	2,15
482,57	1,58
482,77	1,58
482,97	0,24
483,18	2,67
483,38	3,38
483,58	3,62
483,79	3,28
483,99	-3,30
484,19	2,34
484,40	2,27
484,60	4,25
484,80	2,65
485,01	2,34
485,21	3,76
485,41	-0,92
485,62	2,77
485,82	4,76
486,02	2,24
486,23	2,62
486,43	5,77
486,63	5,60
486,84	1,09
487,04	4,17
487,24	2,07
487,45	2,04
487,65	4,54
487,85	1,03
488,06	-1,07
488,26	0,98
488,46	4,51
488,67	5,13
488,87	2,88
489,07	-0,76
489,27	-0,47
489,48	2,26
489,68	1,10
489,88	2,18
490,09	0,23
490,29	7,15
490,49	3,28
490,70	7,30
490,90	2,18
491,10	4,83
491,30	0,88
491,51	5,61
491,71	2,86
491,91	3,57
492,12	4,69
492,32	9,02
492,52	5,01
492,72	11,37
492,93	15,13
493,13	22,30
493,33	21,37
493,53	21,93
493,74	18,34
493,94	13,83
494,14	6,44
494,34	2,96
494,55	7,41
494,75	5,84
494,95	1,97
495,16	1,43
495,36	5,09
495,56	-0,61
495,76	1,60
495,97	2,05
496,17	5,89
496,37	-0,73
496,57	-0,14
496,78	7,38
496,98	6,54
497,18	11,09
497,38	16,45
497,59	26,10
497,79	31,15
497,99	36,99
498,19	40,60
498,39	36,00
498,60	21,35
498,80	20,14
499,00	10,53
499,20	10,10
499,41	2,65
499,61	8,59
499,81	5,38
500,01	3,93
500,22	0,93
500,42	4,03
500,62	6,91
500,82	5,59
501,02	7,44
501,23	1,52
501,43	-0,71
501,63	3,47
501,83	3,97
502,03	5,84
502,24	4,74
502,44	2,32
502,64	5,31
502,84	6,49
503,05	4,41
503,25	2,59
503,45	5,66
503,65	4,36
503,85	4,32
504,06	0,46
504,26	2,21
504,46	1,36
504,66	2,49
504,86	0,62
505,06	0,06
505,27	4,60
505,47	3,86
505,67	1,91
505,87	2,88
506,07	2,36
506,28	3,88
506,48	4,41
506,68	1,96
506,88	4,89
507,08	8,40
507,28	6,79
507,49	1,59
507,69	3,18
507,89	1,59
508,09	4,66
508,29	6,47
508,49	3,74
508,70	2,89
508,90	6,48
509,10	4,31
509,30	2,21
509,50	5,31
509,70	2,65
509,91	5,19
510,11	7,88
510,31	0,36
510,51	5,70
510,71	2,08
510,91	7,06
511,11	5,27
511,32	7,56
511,52	10,76
511,72	8,16
511,92	3,36
512,12	4,13
512,32	-0,19
512,52	3,50
512,73	3,31
512,93	2,74
513,13	0,75
513,33	3,24
513,53	7,57
513,73	2,74
513,93	2,73
514,13	4,85
514,34	7,05
514,54	13,10
514,74	11,52
514,94	15,14
515,14	13,43
515,34	14,41
515,54	10,69
515,74	7,82
515,94	10,90
516,15	6,72
516,35	0,54
516,55	5,77
516,75	5,99
516,95	4,41
517,15	3,81
517,35	5,37
517,55	6,87
517,75	3,41
517,95	5,29
518,16	6,65
518,36	1,47
518,56	5,37
518,76	9,24
518,96	2,53
519,16	6,94
519,36	-0,89
519,56	-4,03
519,76	4,55
519,96	5,25
520,16	5,46
520,37	2,29
520,57	5,50
520,77	0,98
520,97	6,91
521,17	3,75
521,37	2,08
521,57	5,69
521,77	5,43
521,97	7,74
522,17	5,13
522,37	8,38
522,57	5,21
522,77	8,40
522,97	6,42
523,17	4,74
523,37	9,16
523,58	7,51
523,78	3,72
523,98	0,78
524,18	6,86
524,38	5,69
524,58	-2,24
524,78	6,68
524,98	4,60
525,18	6,15
525,38	6,78
525,58	6,48
525,78	5,54
525,98	8,11
526,18	3,95
526,38	6,48
526,58	3,73
526,78	4,80
526,98	6,89
527,18	7,08
527,38	4,96
527,58	6,41
527,78	3,96
527,98	4,86
528,18	5,67
528,38	-0,51
528,58	6,37
528,78	5,31
528,98	3,58
529,18	8,18
529,38	2,37
529,58	3,97
529,78	1,26
529,98	6,47
530,18	8,08
530,38	8,37
530,58	7,63
530,78	4,06
530,98	4,85
531,18	7,45
531,38	5,33
531,58	9,02
531,78	3,73
531,98	1,97
532,18	7,59
532,38	5,56
532,58	5,11
532,78	5,91
532,98	5,89
533,18	6,82
533,38	3,47
533,58	4,72
533,78	6,40
533,98	3,89
534,18	7,61
534,38	5,09
534,58	3,05
534,78	5,91
534,98	5,96
535,18	3,38
535,38	6,44
535,58	5,01
535,78	4,72
535,98	5,11
536,18	5,82
536,38	2,81
536,58	7,54
536,78	2,74
536,98	6,79
537,18	7,99
537,38	5,82
537,58	10,22
537,78	6,36
537,98	4,01
538,17	2,22
538,37	8,24
538,57	5,92
538,77	4,39
538,97	10,57
539,17	4,82
539,37	4,96
539,57	3,60
539,77	5,18
539,97	5,01
540,17	4,71
540,37	6,87
540,57	8,34
540,77	5,60
540,97	6,16
541,16	8,96
541,36	5,04
541,56	2,18
541,76	7,51
541,96	3,98
542,16	8,53
542,36	3,47
542,56	11,04
542,76	8,94
542,96	4,00
543,16	6,26
543,36	4,85
543,55	3,91
543,75	8,10
543,95	8,07
544,15	7,54
544,35	5,94
544,55	8,47
544,75	7,56
544,95	7,34
545,15	10,16
545,35	4,57
545,54	6,13
545,74	9,48
545,94	3,88
546,14	3,56
546,34	6,52
546,54	9,19
546,74	6,00
546,94	8,85
547,14	11,08
547,33	7,19
547,53	6,93
547,73	14,13
547,93	6,11
548,13	5,99
548,33	6,20
548,53	11,00
548,72	9,24
548,92	4,65
549,12	10,42
549,32	8,91
549,52	10,61
549,72	9,48
549,92	10,48
550,12	4,72
550,31	7,20
550,51	9,95
550,71	8,09
550,91	7,99
551,11	5,49
551,31	5,21
551,50	8,13
551,70	9,55
551,90	6,09
552,10	6,20
552,30	7,46
552,50	12,85
552,70	7,21
552,89	8,39
553,09	7,73
553,29	9,44
553,49	8,80
553,69	9,93
553,88	7,62
554,08	5,60
554,28	8,64
554,48	11,28
554,68	6,14
554,88	8,14
555,07	12,41
555,27	11,75
555,47	9,97
555,67	14,70
555,87	9,34
556,06	6,85
556,26	7,57
556,46	11,38
556,66	8,92
556,86	9,27
557,06	10,19
557,25	6,94
557,45	9,99
557,65	11,12
557,85	11,12
558,05	7,39
558,24	6,94
558,44	8,81
558,64	12,03
558,84	12,08
559,03	9,01
559,23	5,31
559,43	9,80
559,63	11,62
559,83	9,27
560,02	9,86
560,22	10,98
560,42	8,84
560,62	12,71
560,82	12,54
561,01	11,77
561,21	6,84
561,41	7,32
561,61	12,23
561,80	9,26
562,00	9,57
562,20	7,41
562,40	13,29
562,59	9,64
562,79	7,36
562,99	11,88
563,19	16,96
563,38	10,67
563,58	9,94
563,78	11,41
563,98	15,70
564,17	12,06
564,37	14,51
564,57	11,66
564,77	11,99
564,96	13,98
565,16	9,96
565,36	15,35
565,56	15,69
565,75	12,66
565,95	14,14
566,15	14,35
566,35	13,73
566,54	13,62
566,74	12,21
566,94	11,77
567,14	19,11
567,33	37,82
567,53	59,49
567,73	98,73
567,92	170,37
568,12	240,20
568,32	299,42
568,52	353,87
568,71	366,14
568,91	333,13
569,11	272,45
569,30	198,08
569,50	136,13
569,70	89,77
569,90	61,33
570,09	44,95
570,29	34,03
570,49	30,29
570,68	25,20
570,88	19,01
571,08	18,26
571,27	19,16
571,47	22,21
571,67	17,16
571,87	12,66
572,06	21,94
572,26	20,15
572,46	15,10
572,65	25,98
572,85	19,38
573,05	22,13
573,24	20,48
573,44	17,41
573,64	20,44
573,83	21,93
574,03	20,00
574,23	22,35
574,42	27,28
574,62	20,02
574,82	22,79
575,01	22,14
575,21	21,39
575,41	22,17
575,60	25,81
575,80	24,35
576,00	24,78
576,19	22,98
576,39	28,85
576,59	28,26
576,78	28,72
576,98	28,69
577,18	32,06
577,37	33,02
577,57	32,77
577,77	30,32
577,96	31,97
578,16	29,11
578,35	37,58
578,55	33,73
578,75	40,72
578,94	35,48
579,14	37,94
579,34	37,26
579,53	42,62
579,73	44,33
579,93	44,97
580,12	38,46
580,32	45,12
580,51	41,02
580,71	39,70
580,91	48,00
581,10	40,60
581,30	49,57
581,50	45,29
581,69	50,40
581,89	48,32
582,08	51,44
582,28	56,52
582,48	54,98
582,67	56,93
582,87	58,71
583,06	61,99
583,26	64,37
583,46	66,76
583,65	67,45
583,85	77,52
584,04	76,13
584,24	80,26
584,44	83,35
584,63	90,63
584,83	92,42
585,02	103,44
585,22	111,84
585,42	120,68
585,61	130,79
585,81	145,14
586,00	157,89
586,20	170,98
586,39	185,46
586,59	203,20
586,79	224,79
586,98	255,20
587,18	300,58
587,37	390,10
587,57	626,36
587,76	2024,26
587,96	6773,69
588,16	15495,56
588,35	28829,10
588,55	47884,20
588,74	62711,63
588,94	64222,88
589,13	64225,77
589,33	64225,84
589,52	64228,23
589,72	64223,00
589,92	64229,27
590,11	60571,10
590,31	43489,34
590,50	31331,38
590,70	26820,59
590,89	20280,06
591,09	11458,65
591,28	4944,37
591,48	2336,70
591,67	1659,85
591,87	1163,33
592,06	820,32
592,26	576,59
592,46	420,53
592,65	319,15
592,85	259,21
593,04	216,31
593,24	190,85
593,43	173,91
593,63	159,51
593,82	143,00
594,02	136,57
594,21	129,18
594,41	117,88
594,60	112,01
594,80	107,61
594,99	103,53
595,19	100,37
595,38	97,86
595,58	97,61
595,77	84,56
595,97	81,87
596,16	78,71
596,36	78,62
596,55	77,09
596,75	72,59
596,94	67,52
597,14	65,31
597,33	62,77
597,53	62,47
597,72	63,16
597,92	62,86
598,11	60,29
598,31	57,08
598,50	54,35
598,70	55,06
598,89	53,82
599,09	50,09
599,28	54,15
599,48	53,27
599,67	53,53
599,87	49,42
600,06	45,36
600,26	46,75
600,45	45,98
600,64	40,26
600,84	40,50
601,03	40,74
601,23	39,54
601,42	39,48
601,62	41,24
601,81	35,90
602,01	44,05
602,20	39,39
602,40	42,41
602,59	41,82
602,78	39,58
602,98	41,25
603,17	37,45
603,37	35,05
603,56	40,82
603,76	33,80
603,95	36,68
604,15	37,16
604,34	33,34
604,53	30,35
604,73	32,83
604,92	28,59
605,12	28,56
605,31	30,19
605,51	26,23
605,70	29,90
605,89	29,50
606,09	26,24
606,28	26,32
606,48	29,57
606,67	24,52
606,87	28,34
607,06	25,97
607,25	27,85
607,45	28,81
607,64	21,71
607,84	25,24
608,03	22,51
608,22	25,76
608,42	26,57
608,61	22,11
608,81	25,03
609,00	21,85
609,19	22,76
609,39	20,42
609,58	21,29
609,78	21,48
609,97	20,11
610,16	25,24
610,36	22,34
610,55	20,06
610,75	26,82
610,94	20,97
611,13	21,68
611,33	23,80
611,52	23,21
611,71	18,27
611,91	24,53
612,10	21,20
612,30	16,35
612,49	19,11
612,68	21,32
612,88	19,51
613,07	21,72
613,26	21,80
613,46	19,53
613,65	17,97
613,84	21,09
614,04	26,08
614,23	25,94
614,43	23,57
614,62	29,40
614,81	28,65
615,01	39,97
615,20	52,82
615,39	64,74
615,59	72,77
615,78	83,84
615,97	88,97
616,17	78,01
616,36	68,75
616,55	55,54
616,75	44,88
616,94	33,28
617,13	27,01
617,33	26,78
617,52	19,13
617,71	17,52
617,91	20,29
618,10	18,64
618,29	17,13
618,49	15,11
618,68	16,54
618,87	21,18
619,07	13,50
619,26	14,38
619,45	15,80
619,65	18,92
619,84	16,36
620,03	13,59
620,22	19,65
620,42	12,71
620,61	13,62
620,80	16,60
621,00	16,91
621,19	10,80
621,38	11,29
621,58	14,10
621,77	16,90
621,96	11,15
622,15	8,43
622,35	10,88
622,54	12,16
622,73	16,64
622,93	10,19
623,12	9,87
623,31	12,16
623,50	12,04
623,70	12,28
623,89	13,06
624,08	11,05
624,28	12,95
624,47	11,56
624,66	16,07
624,85	15,93
625,05	14,12
625,24	11,17
625,43	14,18
625,62	12,85
625,82	11,39
626,01	11,24
626,20	12,08
626,39	10,91
626,59	13,70
626,78	12,64
626,97	11,37
627,17	11,61
627,36	13,12
627,55	15,66
627,74	12,12
627,93	12,98
628,13	14,19
628,32	13,07
628,51	9,96
628,70	14,46
628,90	12,40
629,09	8,59
629,28	11,16
629,47	12,00
629,67	11,56
629,86	12,93
630,05	15,42
630,24	13,27
630,44	11,89
630,63	11,73
630,82	12,61
631,01	15,62
631,20	9,75
631,40	12,76
631,59	13,35
631,78	14,07
631,97	12,37
632,16	7,12
632,36	7,82
632,55	7,01
632,74	6,68
632,93	9,57
633,13	11,46
633,32	12,30
633,51	8,41
633,70	16,61
633,89	6,04
634,09	12,31
634,28	8,09
634,47	12,68
634,66	6,50
634,85	10,15
635,04	9,67
635,24	13,45
635,43	8,18
635,62	9,85
635,81	8,68
636,00	8,10
636,20	16,06
636,39	10,09
636,58	11,89
636,77	11,36
636,96	8,55
637,15	8,05
637,35	9,07
637,54	11,81
637,73	7,66
637,92	11,47
638,11	12,69
638,30	8,50
638,50	3,86
638,69	7,93
638,88	12,76
639,07	5,44
639,26	9,57
639,45	11,27
639,64	6,44
639,84	10,55
640,03	14,71
640,22	7,14
640,41	9,75
640,60	7,38
640,79	12,23
640,98	8,96
641,18	6,78
641,37	9,60
641,56	13,85
641,75	12,51
641,94	7,18
642,13	9,48
642,32	8,60
642,52	9,04
642,71	8,62
642,90	10,54
643,09	7,53
643,28	6,15
643,47	9,99
643,66	10,24
643,85	5,81
644,04	8,89
644,24	10,39
644,43	5,96
644,62	6,26
644,81	10,23
645,00	9,96
645,19	9,53
645,38	11,42
645,57	6,77
645,76	8,98
645,96	6,59
646,15	9,01
646,34	5,03
646,53	4,86
646,72	7,45
646,91	8,84
647,10	8,31
647,29	11,29
647,48	1,80
647,67	8,17
647,86	8,79
648,05	7,53
648,25	8,58
648,44	10,15
648,63	6,20
648,82	4,10
649,01	9,75
649,20	12,21
649,39	7,61
649,58	10,08
649,77	12,76
649,96	7,46
650,15	5,11
650,34	12,94
650,53	8,95
650,72	5,74
650,91	9,57
651,11	7,50
651,30	5,43
651,49	7,40
651,68	10,92
651,87	7,83
652,06	2,64
652,25	9,06
652,44	6,01
652,63	4,79
652,82	2,66
653,01	7,92
653,20	8,75
653,39	8,14
653,58	4,03
653,77	10,02
653,96	4,26
654,15	3,97
654,34	5,05
654,53	5,69
654,72	3,04
654,91	5,54
655,10	4,61
655,29	7,65
655,48	5,93
655,67	6,20
655,86	8,48
656,05	8,31
656,24	4,55
656,43	12,58
656,62	7,15
656,81	6,81
657,00	8,10
657,19	9,07
657,38	7,78
657,57	5,63
657,76	4,60
657,95	1,76
658,14	11,02
658,33	7,03
658,52	3,20
658,71	6,56
658,90	3,62
659,09	6,71
659,28	3,83
659,47	7,57
659,66	6,80
659,85	6,67
660,04	9,56
660,23	5,10
660,42	-0,07
660,61	4,95
660,80	2,84
660,99	3,96
661,18	4,71
661,37	7,33
661,56	5,94
661,75	1,73
661,94	10,61
662,13	5,01
662,32	7,71
662,51	1,24
662,70	4,84
662,89	3,95
663,08	6,81
663,27	4,58
663,46	3,11
663,65	2,71
663,83	6,37
664,02	3,46
664,21	4,23
664,40	5,30
664,59	9,50
664,78	4,18
664,97	5,65
665,16	-0,05
665,35	3,34
665,54	4,56
665,73	1,87
665,92	3,29
666,11	6,89
666,30	2,39
666,49	4,95
666,67	3,80
666,86	2,61
667,05	2,88
667,24	9,59
667,43	3,24
667,62	6,31
667,81	4,03
668,00	5,41
668,19	7,08
668,38	6,45
668,57	4,43
668,76	5,60
668,94	2,84
669,13	6,00
669,32	8,37
669,51	5,52
669,70	3,38
669,89	6,20
670,08	5,46
670,27	8,41
670,46	3,69
670,64	1,58
670,83	3,72
671,02	-0,34
671,21	6,30
671,40	2,12
671,59	-1,69
671,78	-2,31
671,97	1,81
672,16	7,34
672,34	-0,33
672,53	5,32
672,72	7,98
672,91	2,57
673,10	6,08
673,29	6,59
673,48	2,76
673,66	1,17
673,85	3,10
674,04	4,54
674,23	6,73
674,42	5,39
674,61	8,69
674,80	3,24
674,98	7,15
675,17	3,99
675,36	9,25
675,55	4,61
675,74	7,12
675,93	6,66
676,12	2,32
676,30	6,48
676,49	7,58
676,68	2,81
676,87	4,24
677,06	4,36
677,25	1,45
677,43	2,77
677,62	4,03
677,81	6,67
678,00	4,96
678,19	4,50
678,37	1,44
678,56	3,18
678,75	3,44
678,94	4,02
679,13	0,81
679,32	-2,51
679,50	2,95
679,69	5,62
679,88	4,66
680,07	7,00
680,26	5,36
680,44	2,24
680,63	0,17
680,82	3,08
681,01	2,23
681,20	0,07
681,38	1,87
681,57	5,58
681,76	1,85
681,95	2,22
682,14	1,65
682,32	1,10
682,51	2,86
682,70	4,10
682,89	4,65
683,07	1,69
683,26	-0,37
683,45	0,94
683,64	1,64
683,83	4,02
684,01	4,00
684,20	1,20
684,39	5,20
684,58	4,21
684,76	1,02
684,95	5,07
685,14	2,16
685,33	1,89
685,52	6,20
685,70	-0,21
685,89	3,15
686,08	4,79
686,27	6,22
686,45	2,80
686,64	6,09
686,83	5,45
687,02	7,85
687,20	5,68
687,39	2,54
687,58	3,95
687,76	3,93
687,95	2,94
688,14	3,03
688,33	2,93
688,51	3,43
688,70	-0,05
688,89	3,19
689,08	3,72
689,26	3,19
689,45	6,42
689,64	3,52
689,83	5,96
690,01	1,85
690,20	5,02
690,39	1,54
690,57	3,13
690,76	6,53
690,95	0,35
691,14	5,47
691,32	1,84
691,51	1,16
691,70	-1,39
691,88	6,66
692,07	5,37
692,26	3,34
692,44	6,63
692,63	3,47
692,82	0,16
693,01	4,77
693,19	2,43
693,38	1,93
693,57	3,60
693,75	0,90
693,94	6,43
694,13	8,06
694,31	1,01
694,50	3,32
694,69	2,72
694,87	1,36
695,06	6,95
695,25	10,57
695,43	20,90
695,62	43,51
695,81	77,67
695,99	118,07
696,18	179,41
696,37	239,39
696,55	273,82
696,74	277,46
696,93	250,75
697,11	197,19
697,30	141,44
697,49	100,78
697,67	67,38
697,86	52,60
698,05	32,70
698,23	24,31
698,42	15,73
698,61	15,66
698,79	7,56
698,98	8,43
699,17	5,79
699,35	6,75
699,54	7,89
699,72	8,10
699,91	5,81
700,10	-0,26
700,28	1,89
700,47	4,05
700,66	0,94
700,84	0,02
701,03	4,49
701,21	7,19
701,40	1,36
701,59	1,25
701,77	2,90
701,96	2,84
702,15	-1,15
702,33	4,63
702,52	1,26
702,70	2,61
702,89	6,44
703,08	3,25
703,26	7,66
703,45	7,53
703,63	3,80
703,82	8,32
704,01	2,54
704,19	2,68
704,38	2,55
704,56	1,58
704,75	2,96
704,94	1,22
705,12	0,16
705,31	2,66
705,49	13,70
705,68	18,28
705,86	40,00
706,05	57,77
706,24	86,44
706,42	122,97
706,61	158,58
706,79	169,56
706,98	169,80
707,17	146,44
707,35	116,09
707,54	82,07
707,72	58,24
707,91	43,20
708,09	30,59
708,28	17,81
708,46	18,47
708,65	6,70
708,84	10,80
709,02	9,12
709,21	7,16
709,39	9,21
709,58	1,83
709,76	4,29
709,95	2,36
710,13	7,13
710,32	2,59
710,50	1,59
710,69	-1,11
710,88	3,22
711,06	4,86
711,25	5,27
711,43	6,20
711,62	3,97
711,80	3,66
711,99	7,33
712,17	3,39
712,36	-1,53
712,54	3,92
712,73	0,88
712,91	0,24
713,10	1,54
713,28	1,93
713,47	1,27
713,65	6,54
713,84	10,61
714,02	10,27
714,21	14,59
714,39	17,05
714,58	16,63
714,76	15,64
714,95	14,62
715,13	14,23
715,32	13,00
715,50	9,82
715,69	5,94
715,87	8,25
716,06	3,87
716,24	1,84
716,43	0,74
716,61	7,96
716,80	2,48
716,98	-0,92
717,17	5,38
717,35	5,59
717,54	3,73
717,72	0,52
717,91	5,59
718,09	2,61
718,28	5,70
718,46	-0,28
718,65	1,81
718,83	1,35
719,01	4,73
719,20	1,41
719,38	2,57
719,57	0,98
719,75	3,38
719,94	3,41
720,12	1,30
720,31	4,23
720,49	2,83
720,68	1,07
720,86	4,62
721,04	6,18
721,23	0,54
721,41	2,32
721,60	-0,94
721,78	1,42
721,97	3,96
722,15	5,99
722,34	5,34
722,52	0,97
722,70	1,54
722,89	4,81
723,07	3,16
723,26	5,06
723,44	2,52
723,63	4,24
723,81	2,96
723,99	2,08
724,18	2,58
724,36	1,45
724,55	0,65
724,73	3,38
724,91	0,04
725,10	7,49
725,28	1,87
725,47	3,57
725,65	2,40
725,83	2,23
726,02	5,75
726,20	1,09
726,39	14,63
726,57	21,12
726,75	25,49
726,94	41,74
727,12	47,90
727,31	59,02
727,49	62,63
727,67	57,24
727,86	46,34
728,04	32,79
728,23	25,43
728,41	19,72
728,59	13,34
728,78	13,00
728,96	4,12
729,14	10,02
729,33	-1,13
729,51	2,84
729,69	6,00
729,88	3,36
730,06	-1,41
730,25	-0,40
730,43	2,78
730,61	4,23
730,80	5,02
730,98	3,79
731,16	1,78
731,35	3,54
731,53	1,55
731,71	-1,34
731,90	2,91
732,08	2,54
732,26	1,56
732,45	3,19
732,63	-0,17
732,81	0,05
733,00	3,57
733,18	3,14
733,36	2,20
733,55	1,53
733,73	3,89
733,91	-0,59
734,10	0,99
734,28	4,99
734,46	1,23
734,65	0,65
734,83	3,04
735,01	0,66
735,20	0,23
735,38	2,21
735,56	-2,05
735,75	1,40
735,93	3,69
736,11	4,74
736,30	5,01
736,48	1,67
736,66	3,13
736,84	4,62
737,03	9,64
737,21	15,96
737,39	36,06
737,58	59,07
737,76	89,44
737,94	135,88
738,12	183,91
738,31	222,51
738,49	254,92
738,67	253,58
738,86	230,45
739,04	188,63
739,22	144,99
739,40	106,06
739,59	73,94
739,77	54,84
739,95	41,24
740,14	28,53
740,32	22,60
740,50	19,92
740,68	9,16
740,87	5,30
741,05	6,24
741,23	3,72
741,41	2,00
741,60	5,90
741,78	6,10
741,96	0,18
742,14	1,76
742,33	2,57
742,51	4,08
742,69	2,09
742,87	0,82
743,06	6,08
743,24	1,42
743,42	5,63
743,60	2,61
743,79	2,37
743,97	4,98
744,15	-1,47
744,33	0,86
744,52	2,85
744,70	3,30
744,88	4,05
745,06	0,46
745,24	6,57
745,43	0,56
745,61	-0,04
745,79	2,78
745,97	4,45
746,16	4,79
746,34	2,14
746,52	2,31
746,70	1,20
746,88	1,06
747,07	3,20
747,25	4,81
747,43	5,71
747,61	-2,51
747,79	3,95
747,98	2,10
748,16	0,55
748,34	3,17
748,52	2,40
748,70	1,44
748,89	0,92
749,07	9,35
749,25	13,04
749,43	28,87
749,61	42,10
749,79	73,87
749,98	106,11
750,16	144,78
750,34	175,74
750,52	212,47
750,70	228,88
750,88	245,20
751,07	242,91
751,25	262,21
751,43	261,31
751,61	258,03
751,79	241,41
751,97	206,91
752,16	160,74
752,34	125,03
752,52	96,07
752,70	71,79
752,88	46,73
753,06	39,08
753,25	25,05
753,43	18,82
753,61	17,94
753,79	14,46
753,97	10,37
754,15	7,28
754,33	5,78
754,52	6,03
754,70	3,88
754,88	3,12
755,06	5,80
755,24	2,59
755,42	1,98
755,60	1,74
755,78	1,45
755,97	3,99
756,15	4,72
756,33	3,46
756,51	4,15
756,69	4,52
756,87	-1,08
757,05	3,92
757,23	2,89
757,41	0,14
757,60	2,46
757,78	-2,47
757,96	1,24
758,14	1,63
758,32	4,68
758,50	3,37
758,68	-0,32
758,86	2,83
759,04	-0,65
759,22	1,71
759,41	2,56
759,59	1,43
759,77	0,79
759,95	2,88
760,13	0,15
760,31	1,36
760,49	2,64
760,67	2,79
760,85	3,99
761,03	-2,08
761,21	3,68
761,39	4,32
761,57	-0,47
761,76	6,99
761,94	3,46
762,12	17,20
762,30	50,17
762,48	107,15
762,66	187,69
762,84	301,85
763,02	441,40
763,20	635,87
763,38	782,40
763,56	901,19
763,74	989,06
763,92	965,11
764,10	829,31
764,28	667,29
764,46	515,24
764,64	387,22
764,82	283,78
765,00	206,86
765,19	148,98
765,37	114,18
765,55	86,61
765,73	68,74
765,91	69,05
766,09	65,79
766,27	73,89
766,45	77,14
766,63	79,55
766,81	78,50
766,99	74,39
767,17	56,80
767,35	41,24
767,53	38,03
767,71	28,43
767,89	17,90
768,07	15,18
768,25	10,40
768,43	8,66
768,61	10,16
768,79	8,31
768,97	9,80
769,15	12,89
769,33	22,33
769,51	21,35
769,69	23,62
769,87	30,33
770,05	36,64
770,23	35,51
770,41	33,39
770,59	26,80
770,77	20,53
770,95	20,60
771,13	22,49
771,31	36,89
771,49	57,16
771,67	97,39
771,85	146,15
772,03	201,50
772,21	267,70
772,38	313,26
772,56	342,81
772,74	348,29
772,92	313,97
773,10	262,71
773,28	211,20
773,46	164,48
773,64	127,21
773,82	96,52
774,00	68,44
774,18	52,49
774,36	39,36
774,54	28,31
774,72	24,05
774,90	14,62
775,08	15,53
775,26	8,26
775,44	13,82
775,62	9,57
775,80	6,19
775,97	5,97
776,15	1,20
776,33	-0,23
776,51	3,47
776,69	3,33
776,87	3,80
777,05	6,32
777,23	2,66
777,41	3,78
777,59	-0,19
777,77	3,67
777,95	4,83
778,13	0,87
778,30	2,78
778,48	2,63
778,66	0,60
778,84	0,91
779,02	-2,99
779,20	1,83
779,38	-2,13
779,56	4,27
779,74	1,81
779,92	2,30
780,09	3,33
780,27	4,58
780,45	3,86
780,63	-3,46
780,81	-0,33
780,99	-4,11
781,17	2,20
781,35	3,50
781,52	1,13
781,70	6,89
781,88	-1,52
782,06	1,37
782,24	-0,49
782,42	2,76
782,60	5,39
782,78	1,12
782,95	4,87
783,13	2,88
783,31	2,44
783,49	-2,55
783,67	5,07
783,85	3,80
784,03	4,29
784,20	1,13
784,38	3,86
784,56	2,97
784,74	1,86
784,92	0,51
785,10	3,81
785,28	-0,50
785,45	-2,22
785,63	3,62
785,81	2,35
785,99	-2,85
786,17	2,08
786,35	2,14
786,52	-0,91
786,70	-0,80
786,88	2,49
787,06	2,13
787,24	1,66
787,41	-3,07
787,59	-2,62
787,77	2,10
787,95	1,64
788,13	1,05
788,31	-0,31
788,48	1,06
788,66	1,24
788,84	0,88
789,02	3,98
789,20	-0,39
789,37	-0,12
789,55	3,26
789,73	-1,25
789,91	4,05
790,09	5,84
790,26	-2,27
790,44	0,61
790,62	-1,06
790,80	2,16
790,98	1,85
791,15	-1,37
791,33	4,26
791,51	0,88
791,69	0,89
791,86	2,92
792,04	-0,89
792,22	5,57
792,40	4,45
792,58	2,66
792,75	0,27
792,93	0,04
793,11	-0,48
793,29	2,32
793,46	2,23
793,64	18,54
793,82	22,91
794,00	37,83
794,17	57,74
794,35	92,79
794,53	122,04
794,71	154,84
794,88	176,42
795,06	198,47
795,24	200,73
795,42	178,31
795,59	145,96
795,77	119,86
795,95	98,01
796,13	72,20
796,30	60,68
796,48	41,27
796,66	32,15
796,83	28,55
797,01	14,24
797,19	14,85
797,37	13,15
797,54	11,00
797,72	12,50
797,90	11,44
798,08	7,06
798,25	4,71
798,43	7,19
798,61	6,30
798,78	6,46
798,96	4,59
799,14	4,46
799,31	4,23
799,49	9,04
799,67	12,72
799,85	22,54
800,02	37,55
800,20	62,32
800,38	87,90
800,55	104,39
800,73	138,19
800,91	177,20
801,08	206,92
801,26	230,32
801,44	241,92
801,61	243,61
801,79	247,39
801,97	231,69
802,15	202,39
802,32	163,85
802,50	128,94
802,68	102,52
802,85	81,08
803,03	58,88
803,21	52,02
803,38	34,65
803,56	27,35
803,74	22,04
803,91	22,21
804,09	11,07
804,26	8,68
804,44	9,51
804,62	9,90
804,79	8,56
804,97	11,71
805,15	4,37
805,32	4,30
805,50	0,42
805,68	2,89
805,85	0,45
806,03	6,50
806,21	1,92
806,38	1,83
806,56	-0,29
806,73	6,00
806,91	-2,15
807,09	-1,31
807,26	1,22
807,44	5,95
807,62	-1,51
807,79	1,88
807,97	0,96
808,14	-0,35
808,32	-0,91
808,50	-0,86
808,67	1,98
808,85	6,89
809,02	8,05
809,20	20,80
809,38	28,52
809,55	49,04
809,73	70,90
809,90	111,49
810,08	156,96
810,26	208,89
810,43	264,02
810,61	332,93
810,78	411,48
810,96	481,39
811,14	563,11
811,31	652,74
811,49	719,52
811,66	772,76
811,84	817,32
812,02	794,65
812,19	691,34
812,37	585,78
812,54	504,11
812,72	418,47
812,89	341,57
813,07	272,01
813,25	208,30
813,42	156,09
813,60	117,47
813,77	90,58
813,95	62,25
814,12	53,54
814,30	42,51
814,47	34,97
814,65	31,44
814,83	25,15
815,00	17,20
815,18	15,01
815,35	11,84
815,53	14,75
815,70	12,75
815,88	5,82
816,05	10,19
816,23	1,29
816,40	8,00
816,58	3,68
816,75	7,00
816,93	11,96
817,10	18,09
817,28	36,60
817,46	63,04
817,63	99,74
817,81	155,81
817,98	219,70
818,16	290,33
818,33	366,46
818,51	439,05
818,68	521,85
818,86	578,14
819,03	629,06
819,21	676,73
819,38	738,83
819,56	774,17
819,73	819,67
819,91	808,76
820,08	748,92
820,26	633,09
820,43	545,94
820,61	452,58
820,78	376,32
820,96	301,54
821,13	241,11
821,31	187,52
821,48	145,67
821,66	111,78
821,83	85,22
822,00	70,01
822,18	51,17
822,35	45,53
822,53	36,65
822,70	31,73
822,88	26,62
823,05	25,04
823,23	20,79
823,40	18,82
823,58	11,72
823,75	10,73
823,93	7,40
824,10	7,91
824,28	1,87
824,45	4,25
824,62	3,55
824,80	9,15
824,97	2,70
825,15	1,67
825,32	9,09
825,50	13,32
825,67	27,08
825,85	36,33
826,02	60,13
826,19	74,05
826,37	94,70
826,54	114,09
826,72	127,62
826,89	127,05
827,07	125,54
827,24	108,56
827,41	102,01
827,59	80,73
827,76	69,98
827,94	58,14
828,11	47,91
828,28	38,07
828,46	24,55
828,63	20,97
828,81	10,43
828,98	15,96
829,15	9,83
829,33	8,26
829,50	11,65
829,68	6,06
829,85	5,06
830,02	5,16
830,20	4,49
830,37	4,79
830,55	5,65
830,72	6,08
830,89	2,39
831,07	4,26
831,24	2,65
831,42	0,68
831,59	5,16
831,76	4,47
831,94	0,94
832,11	0,98
832,28	3,80
832,46	1,58
832,63	-0,06
832,81	-2,00
832,98	0,55
833,15	-3,24
833,33	6,34
833,50	-1,69
833,67	2,68
833,85	-2,55
834,02	1,59
834,19	3,84
834,37	4,60
834,54	4,48
834,71	-1,10
834,89	0,31
835,06	1,26
835,23	3,77
835,41	1,23
835,58	4,57
835,75	-0,88
835,93	-3,54
836,10	-2,36
836,27	3,20
836,45	4,89
836,62	-0,99
836,79	-2,60
836,97	0,14
837,14	3,33
837,31	1,68
837,49	-0,97
837,66	6,09
837,83	-0,45
838,01	-2,91
838,18	-0,31
838,35	-0,23
838,53	3,08
838,70	3,64
838,87	8,72
839,04	3,36
839,22	6,00
839,39	-2,37
839,56	6,28
839,74	15,01
839,91	20,16
840,08	27,99
840,26	46,33
840,43	71,66
840,60	98,10
840,77	117,15
840,95	140,70
841,12	155,14
841,29	166,77
841,46	168,79
841,64	168,42
841,81	169,58
841,98	188,77
842,16	197,54
842,33	217,12
842,50	234,71
842,67	244,66
842,85	241,07
843,02	237,95
843,19	216,85
843,36	190,65
843,54	166,00
843,71	145,78
843,88	126,04
844,05	109,09
844,23	88,51
844,40	66,68
844,57	52,82
844,74	39,63
844,92	31,99
845,09	25,11
845,26	20,50
845,43	16,53
845,61	12,96
845,78	17,75
845,95	12,90
846,12	6,84
846,29	9,97
846,47	1,87
846,64	4,73
846,81	7,32
846,98	1,73
847,16	5,75
847,33	8,07
847,50	6,22
847,67	-0,31
847,84	1,75
848,02	1,86
848,19	-0,11
848,36	2,62
848,53	-0,03
848,70	0,53
848,88	-0,73
849,05	-2,56
849,22	1,95
849,39	1,20
849,56	-0,10
849,74	6,03
849,91	-0,84
850,08	-0,47
850,25	0,09
850,42	1,18
850,60	-2,47
850,77	0,17
850,94	6,25
851,11	4,33
851,28	6,04
851,45	12,07
851,63	11,83
851,80	22,57
851,97	31,87
852,14	44,95
852,31	50,49
852,48	49,82
852,66	53,77
852,83	54,36
853,00	50,83
853,17	40,70
853,34	41,09
853,51	35,55
853,68	28,05
853,86	22,67
854,03	23,66
854,20	15,87
854,37	16,74
854,54	14,43
854,71	12,49
854,88	6,64
855,06	5,64
855,23	3,97
855,40	0,45
855,57	3,40
855,74	3,54
855,91	2,83
856,08	3,43
856,25	1,03
856,43	5,86
856,60	2,07
856,77	-3,32
856,94	5,04
857,11	2,63
857,28	-0,11
857,45	2,94
857,62	0,42
857,79	-0,73
857,97	1,97
858,14	2,70
858,31	3,32
858,48	3,63
858,65	1,56
858,82	0,73
858,99	2,47
859,16	-4,99
859,33	2,20
859,50	3,35
859,67	1,83
859,85	-2,36
860,02	-2,38
860,19	7,07
860,36	-2,30
860,53	-0,54
860,70	-3,01
860,87	0,79
861,04	4,52
861,21	1,59
861,38	2,17
861,55	-3,44
861,72	0,27
861,89	3,60
862,06	2,97
862,23	5,98
862,41	1,29
862,58	-0,29
862,75	-0,24
862,92	1,85
863,09	0,59
863,26	0,78
863,43	3,43
863,60	-0,01
863,77	-0,89
863,94	-1,37
864,11	-1,33
864,28	4,15
864,45	1,70
864,62	0,29
864,79	3,86
864,96	2,90
865,13	-2,71
865,30	1,95
865,47	-0,80
865,64	5,55
865,81	3,40
865,98	1,00
866,15	5,77
866,32	2,21
866,49	5,46
866,66	6,47
866,83	8,24
867,00	7,07
867,17	3,57
867,34	7,99
867,51	9,67
867,68	9,23
867,85	10,94
868,02	7,59
868,19	8,93
868,36	9,05
868,53	7,44
868,70	7,22
868,87	6,38
869,04	-1,70
869,21	2,67
869,38	1,63
869,55	-1,29
869,72	0,20
869,89	3,36
870,06	-1,34
870,23	0,89
870,40	2,49
870,57	3,46
870,74	-0,10
870,91	2,36
871,08	1,48
871,25	0,79
871,42	1,40
871,59	-1,43
871,76	-3,79
871,93	4,33
872,10	-1,69
872,27	-1,50
872,44	3,89
872,60	1,57
872,77	3,13
872,94	0,04
873,11	1,70
873,28	0,89
873,45	1,20
873,62	2,74
873,79	4,86
873,96	-0,24
874,13	0,01
874,30	-0,49
874,47	2,77
874,64	0,97
874,81	2,12
874,97	1,28
875,14	0,26
875,31	2,23
875,48	3,92
875,65	2,46
875,82	0,85
875,99	3,90
876,16	1,46
876,33	4,56
876,50	4,39
876,67	0,11
876,83	1,20
877,00	-0,94
877,17	2,94
877,34	-0,12
877,51	7,20
877,68	0,00
877,85	1,17
878,02	1,10
878,19	5,16
878,35	0,15
878,52	0,19
878,69	0,96
878,86	1,76
879,03	0,27
879,20	1,48
879,37	3,25
879,54	1,49
879,70	0,64
879,87	-3,54
880,04	-1,36
880,21	-0,42
880,38	-1,08
880,55	-0,30
880,72	2,58
880,89	1,85
881,05	-0,13
881,22	-1,17
881,39	2,92
881,56	-3,26
881,73	0,47
881,90	2,84
882,06	-0,73
882,23	-0,52
882,40	0,57
882,57	1,30
882,74	1,33
882,91	-0,51
883,07	1,17
883,24	2,71
883,41	-0,84
883,58	1,51
883,75	1,83
883,92	-0,50
884,08	0,67
884,25	-1,53
884,42	-1,88
884,59	2,76
884,76	-0,37
884,92	4,18
885,09	4,87
885,26	-4,65
885,43	-3,27
885,60	0,09
885,76	-0,68
885,93	1,06
886,10	2,08
886,27	-1,08
886,44	0,10
886,60	0,57
886,77	-1,17
886,94	-4,07
887,11	-2,19
887,28	1,04
887,44	-2,22
887,61	0,05
887,78	0,07
887,95	-1,55
888,12	0,51
888,28	-1,18
888,45	1,12
888,62	-3,27
888,79	-0,60
888,95	-2,19
889,12	-1,16
889,29	3,44
889,46	-4,66
889,62	-2,07
889,79	-0,53
889,96	4,13
890,13	1,76
890,29	1,37
890,46	1,35
890,63	1,68
890,80	0,54
890,96	-1,25
891,13	1,56
891,30	3,91
891,47	2,14
891,63	0,70
891,80	2,22
891,97	0,86
892,14	-0,18
892,30	4,68
892,47	3,09
892,64	-1,65
892,80	4,62
892,97	-0,80
893,14	2,50
893,31	-4,84
893,47	1,51
893,64	-0,03
893,81	-0,88
893,97	-2,42
894,14	5,25

