SpectraSuite Datei
++++++++++++++++++++++++++++++++++++
Datum: Mon Jan 08 16:52:01 CET 2018
Benutzer: Praktikum-Pc1
Dark-Spektrum vorhanden: Ja
Referenz-Spektrum vorhanden: Nein
Zahl der probierten Teilspektren: 1
Spektrometer: USB4H10187
Integrationszeit (usec): 10000 (USB4H10187)
Spektren Durchschnitt berechnet: 400 (USB4H10187)
Boxcar Glâ€°ttung: 0 (USB4H10187)
Dunkelstromkorrektur: Nein (USB4H10187)
Puls/Lampe aktiviert: Nein (USB4H10187)
Correct for Detector Non-linearity: Nein (USB4H10187)
Streulichtkorrektur: Nein (USB4H10187)
Anzahl Pixel in verarbeitetem Spektrum: 3648
>>>>>Begin Processed Spectral Data<<<<<
176,80	0,48
177,02	0,48
177,24	0,48
177,46	1,75
177,68	-2,25
177,91	-0,60
178,13	-1,82
178,35	-0,53
178,57	3,05
178,79	-0,34
179,02	-1,21
179,24	0,55
179,46	-0,35
179,68	-0,15
179,90	6,16
180,12	-1,25
180,35	-2,15
180,57	-0,57
180,79	11,35
181,01	20,56
181,23	20,21
181,46	19,65
181,68	19,74
181,90	21,60
182,12	21,24
182,34	20,96
182,56	16,30
182,79	17,49
183,01	21,65
183,23	22,56
183,45	19,63
183,67	21,60
183,89	20,45
184,12	18,87
184,34	17,44
184,56	21,33
184,78	21,60
185,00	23,36
185,22	19,26
185,45	23,15
185,67	20,53
185,89	15,54
186,11	15,65
186,33	14,08
186,55	16,68
186,77	18,29
187,00	19,11
187,22	23,56
187,44	25,13
187,66	23,48
187,88	23,23
188,10	20,64
188,32	17,58
188,55	24,17
188,77	23,46
188,99	28,44
189,21	24,72
189,43	24,58
189,65	25,41
189,87	24,48
190,10	27,23
190,32	26,73
190,54	25,52
190,76	24,89
190,98	21,50
191,20	20,21
191,42	21,05
191,64	18,05
191,87	18,66
192,09	18,85
192,31	18,91
192,53	14,38
192,75	24,19
192,97	19,96
193,19	23,01
193,41	20,04
193,64	25,36
193,86	25,49
194,08	27,10
194,30	26,61
194,52	24,07
194,74	25,07
194,96	23,72
195,18	21,47
195,40	23,69
195,63	25,82
195,85	21,54
196,07	17,82
196,29	25,98
196,51	19,98
196,73	21,93
196,95	23,34
197,17	22,74
197,39	18,77
197,61	18,02
197,84	23,40
198,06	19,61
198,28	25,87
198,50	19,07
198,72	19,97
198,94	23,11
199,16	24,51
199,38	24,50
199,60	28,49
199,82	21,44
200,04	27,24
200,26	22,26
200,49	23,78
200,71	25,17
200,93	24,39
201,15	25,74
201,37	22,37
201,59	23,30
201,81	31,52
202,03	27,65
202,25	24,78
202,47	27,27
202,69	32,06
202,91	34,59
203,13	29,09
203,35	32,50
203,58	33,49
203,80	33,50
204,02	34,00
204,24	31,42
204,46	28,94
204,68	25,18
204,90	26,41
205,12	22,43
205,34	23,73
205,56	23,18
205,78	21,12
206,00	19,75
206,22	22,40
206,44	23,04
206,66	25,49
206,88	25,08
207,10	28,42
207,32	24,15
207,54	26,58
207,76	31,06
207,99	25,86
208,21	29,37
208,43	25,70
208,65	29,85
208,87	28,40
209,09	27,76
209,31	20,53
209,53	22,67
209,75	27,61
209,97	29,17
210,19	25,15
210,41	28,63
210,63	29,38
210,85	27,05
211,07	31,21
211,29	29,43
211,51	28,86
211,73	27,64
211,95	30,42
212,17	30,43
212,39	26,20
212,61	31,72
212,83	27,35
213,05	27,92
213,27	29,91
213,49	31,58
213,71	28,10
213,93	28,62
214,15	23,38
214,37	25,24
214,59	23,84
214,81	27,86
215,03	29,16
215,25	22,42
215,47	25,93
215,69	36,73
215,91	28,35
216,13	35,03
216,35	33,13
216,57	31,42
216,79	33,28
217,01	27,79
217,23	29,21
217,45	33,04
217,67	34,05
217,89	34,73
218,11	35,68
218,33	37,85
218,55	42,67
218,77	42,86
218,99	37,25
219,21	33,46
219,43	30,63
219,65	33,79
219,87	31,58
220,09	34,46
220,31	30,64
220,53	28,16
220,75	29,07
220,97	27,85
221,19	24,84
221,41	24,50
221,63	28,74
221,85	27,12
222,06	27,23
222,28	28,78
222,50	27,13
222,72	34,41
222,94	32,86
223,16	30,31
223,38	31,86
223,60	27,88
223,82	37,37
224,04	38,59
224,26	30,83
224,48	36,64
224,70	31,94
224,92	32,14
225,14	34,06
225,36	34,81
225,58	32,06
225,80	28,75
226,02	29,77
226,24	31,15
226,45	29,09
226,67	29,23
226,89	26,13
227,11	28,09
227,33	26,79
227,55	26,37
227,77	31,32
227,99	30,78
228,21	29,93
228,43	30,78
228,65	28,68
228,87	32,83
229,09	27,69
229,31	31,64
229,52	28,90
229,74	30,77
229,96	28,92
230,18	28,01
230,40	27,40
230,62	27,78
230,84	35,49
231,06	30,04
231,28	33,16
231,50	37,03
231,72	31,83
231,94	33,07
232,15	32,04
232,37	27,05
232,59	36,83
232,81	34,43
233,03	30,50
233,25	30,82
233,47	31,15
233,69	38,25
233,91	40,23
234,13	39,96
234,34	47,52
234,56	50,49
234,78	49,60
235,00	50,02
235,22	45,40
235,44	43,49
235,66	39,46
235,88	36,76
236,10	30,88
236,31	34,55
236,53	38,20
236,75	29,82
236,97	30,09
237,19	32,53
237,41	34,53
237,63	27,84
237,85	37,79
238,07	34,29
238,28	34,20
238,50	32,15
238,72	38,56
238,94	32,50
239,16	31,79
239,38	30,87
239,60	27,33
239,81	29,87
240,03	27,13
240,25	31,59
240,47	28,24
240,69	28,73
240,91	31,99
241,13	30,58
241,34	29,98
241,56	34,06
241,78	31,50
242,00	30,02
242,22	34,87
242,44	30,64
242,66	30,41
242,87	32,81
243,09	38,10
243,31	27,89
243,53	34,17
243,75	35,24
243,97	31,50
244,19	33,93
244,40	35,08
244,62	34,50
244,84	34,36
245,06	36,67
245,28	40,54
245,50	36,73
245,71	39,85
245,93	37,37
246,15	43,37
246,37	41,44
246,59	43,24
246,81	43,82
247,02	43,93
247,24	48,22
247,46	44,54
247,68	45,79
247,90	41,02
248,11	53,60
248,33	46,25
248,55	48,16
248,77	49,15
248,99	49,59
249,21	49,67
249,42	55,46
249,64	56,74
249,86	51,85
250,08	61,73
250,30	57,38
250,51	58,03
250,73	60,58
250,95	68,04
251,17	62,91
251,39	62,25
251,60	59,91
251,82	60,81
252,04	59,70
252,26	61,22
252,48	60,30
252,69	65,58
252,91	63,16
253,13	64,67
253,35	63,63
253,57	66,72
253,78	61,92
254,00	65,41
254,22	59,59
254,44	63,32
254,65	57,94
254,87	58,49
255,09	62,76
255,31	61,25
255,53	56,72
255,74	61,99
255,96	63,93
256,18	60,80
256,40	63,90
256,61	61,50
256,83	56,25
257,05	59,31
257,27	61,88
257,48	65,83
257,70	66,23
257,92	67,81
258,14	68,50
258,36	59,65
258,57	68,94
258,79	62,99
259,01	57,44
259,23	65,16
259,44	67,74
259,66	72,91
259,88	74,67
260,10	77,92
260,31	77,43
260,53	74,31
260,75	79,36
260,97	71,03
261,18	73,96
261,40	73,39
261,62	69,39
261,84	71,05
262,05	70,59
262,27	66,22
262,49	68,22
262,71	71,50
262,92	65,89
263,14	64,82
263,36	70,98
263,57	71,15
263,79	77,73
264,01	75,62
264,23	77,00
264,44	75,17
264,66	80,18
264,88	80,74
265,10	72,14
265,31	73,06
265,53	75,45
265,75	76,60
265,96	74,30
266,18	73,62
266,40	72,93
266,62	73,88
266,83	71,49
267,05	79,10
267,27	78,93
267,48	78,32
267,70	77,57
267,92	80,46
268,14	72,64
268,35	77,43
268,57	72,20
268,79	74,28
269,00	78,65
269,22	75,52
269,44	81,21
269,65	76,64
269,87	82,26
270,09	81,07
270,31	83,55
270,52	77,93
270,74	76,96
270,96	81,88
271,17	81,78
271,39	87,42
271,61	93,18
271,82	90,82
272,04	91,16
272,26	88,55
272,47	88,09
272,69	86,04
272,91	79,73
273,12	82,48
273,34	80,70
273,56	79,38
273,77	79,25
273,99	82,55
274,21	81,77
274,42	75,83
274,64	71,88
274,86	74,08
275,08	75,50
275,29	77,97
275,51	73,89
275,72	81,64
275,94	78,65
276,16	81,76
276,37	80,77
276,59	83,42
276,81	84,35
277,02	82,90
277,24	83,50
277,46	78,51
277,67	76,25
277,89	76,34
278,11	69,46
278,32	76,53
278,54	78,21
278,76	75,51
278,97	73,76
279,19	78,67
279,41	75,13
279,62	80,52
279,84	84,91
280,05	79,99
280,27	76,50
280,49	76,33
280,70	76,18
280,92	69,89
281,14	71,23
281,35	69,99
281,57	65,75
281,79	64,62
282,00	69,52
282,22	65,66
282,43	65,07
282,65	68,16
282,87	65,27
283,08	61,67
283,30	58,32
283,52	59,82
283,73	58,15
283,95	53,21
284,16	51,42
284,38	53,19
284,60	53,97
284,81	52,98
285,03	52,69
285,24	53,38
285,46	56,16
285,68	55,85
285,89	59,49
286,11	59,66
286,32	63,12
286,54	64,71
286,76	66,01
286,97	70,32
287,19	66,72
287,40	64,21
287,62	61,37
287,84	58,73
288,05	53,11
288,27	53,61
288,48	55,15
288,70	55,42
288,92	60,46
289,13	55,57
289,35	58,26
289,56	57,61
289,78	57,83
289,99	58,20
290,21	49,79
290,43	59,25
290,64	56,57
290,86	57,76
291,07	59,00
291,29	61,28
291,51	61,30
291,72	59,92
291,94	55,90
292,15	59,00
292,37	60,74
292,58	60,40
292,80	62,65
293,01	67,04
293,23	67,75
293,45	74,89
293,66	75,80
293,88	81,03
294,09	87,15
294,31	92,89
294,52	91,95
294,74	89,84
294,96	86,42
295,17	82,25
295,39	73,87
295,60	67,59
295,82	62,29
296,03	60,30
296,25	62,24
296,46	61,02
296,68	58,08
296,89	59,85
297,11	60,47
297,32	63,04
297,54	62,98
297,76	59,69
297,97	58,11
298,19	61,17
298,40	56,28
298,62	53,34
298,83	56,70
299,05	54,20
299,26	55,59
299,48	53,85
299,69	53,91
299,91	53,44
300,12	53,17
300,34	52,46
300,55	52,31
300,77	54,74
300,98	58,22
301,20	63,11
301,41	63,56
301,63	63,08
301,84	66,26
302,06	62,62
302,28	62,69
302,49	64,50
302,71	63,47
302,92	65,09
303,14	67,35
303,35	67,30
303,57	63,39
303,78	60,56
304,00	64,27
304,21	61,12
304,43	65,24
304,64	63,47
304,86	59,44
305,07	58,75
305,29	60,25
305,50	66,52
305,71	65,47
305,93	67,07
306,14	70,71
306,36	64,42
306,57	63,10
306,79	62,36
307,00	61,19
307,22	67,04
307,43	65,17
307,65	72,32
307,86	71,99
308,08	73,44
308,29	74,24
308,51	77,74
308,72	70,21
308,94	68,11
309,15	70,83
309,37	71,30
309,58	65,46
309,80	64,32
310,01	66,12
310,22	61,77
310,44	62,23
310,65	66,50
310,87	63,54
311,08	71,39
311,30	70,21
311,51	68,37
311,73	73,77
311,94	74,19
312,16	73,63
312,37	71,17
312,58	73,26
312,80	73,60
313,01	79,96
313,23	78,90
313,44	79,26
313,66	71,15
313,87	73,38
314,09	69,57
314,30	74,82
314,51	70,63
314,73	76,81
314,94	76,14
315,16	74,95
315,37	72,21
315,59	71,79
315,80	68,22
316,01	77,25
316,23	77,69
316,44	84,35
316,66	92,26
316,87	88,69
317,09	91,24
317,30	86,81
317,51	81,98
317,73	79,92
317,94	75,64
318,16	69,21
318,37	74,28
318,58	78,37
318,80	75,71
319,01	78,04
319,23	78,25
319,44	75,43
319,66	74,47
319,87	77,65
320,08	75,12
320,30	78,89
320,51	72,09
320,73	79,25
320,94	78,00
321,15	77,10
321,37	74,58
321,58	80,16
321,80	79,02
322,01	75,62
322,22	72,88
322,44	82,56
322,65	74,82
322,86	75,16
323,08	78,43
323,29	83,44
323,51	80,01
323,72	83,53
323,93	86,99
324,15	87,02
324,36	88,70
324,58	90,48
324,79	94,85
325,00	94,58
325,22	96,02
325,43	95,73
325,64	91,88
325,86	92,28
326,07	92,12
326,28	93,41
326,50	100,20
326,71	94,49
326,93	97,57
327,14	100,85
327,35	105,68
327,57	107,98
327,78	109,14
327,99	111,58
328,21	124,84
328,42	132,01
328,63	141,45
328,85	181,44
329,06	336,72
329,27	900,03
329,49	1922,84
329,70	3202,76
329,91	4681,06
330,13	5884,84
330,34	6416,75
330,56	6135,85
330,77	5034,23
330,98	3709,29
331,20	2235,80
331,41	1171,49
331,62	497,05
331,84	249,59
332,05	168,32
332,26	137,96
332,48	121,53
332,69	120,13
332,90	114,64
333,11	108,02
333,33	102,71
333,54	101,89
333,75	96,57
333,97	94,51
334,18	93,05
334,39	100,74
334,61	92,61
334,82	95,60
335,03	95,36
335,25	91,69
335,46	91,97
335,67	92,54
335,89	95,66
336,10	91,70
336,31	91,55
336,53	91,82
336,74	86,61
336,95	98,18
337,16	96,94
337,38	95,47
337,59	97,84
337,80	98,99
338,02	94,55
338,23	90,74
338,44	87,83
338,65	85,20
338,87	84,36
339,08	84,48
339,29	79,89
339,51	79,40
339,72	88,55
339,93	98,36
340,14	100,16
340,36	90,86
340,57	76,47
340,78	77,63
341,00	80,96
341,21	83,00
341,42	85,42
341,63	88,66
341,85	90,13
342,06	91,71
342,27	94,33
342,49	101,84
342,70	103,34
342,91	99,84
343,12	103,94
343,34	102,03
343,55	101,41
343,76	104,82
343,97	100,42
344,19	96,39
344,40	93,44
344,61	87,45
344,82	89,09
345,04	85,92
345,25	86,91
345,46	92,90
345,67	85,48
345,89	87,18
346,10	88,99
346,31	89,10
346,52	98,93
346,74	95,88
346,95	99,38
347,16	90,36
347,37	95,72
347,59	87,92
347,80	91,99
348,01	94,25
348,22	91,82
348,43	91,86
348,65	92,04
348,86	90,50
349,07	91,52
349,28	84,56
349,50	88,14
349,71	87,94
349,92	93,55
350,13	97,26
350,34	92,73
350,56	94,39
350,77	97,55
350,98	99,85
351,19	97,66
351,41	96,74
351,62	92,35
351,83	88,51
352,04	94,65
352,25	87,15
352,47	92,41
352,68	91,32
352,89	92,27
353,10	97,21
353,31	102,11
353,53	107,11
353,74	107,26
353,95	112,36
354,16	111,47
354,37	117,35
354,59	120,32
354,80	113,47
355,01	117,22
355,22	111,52
355,43	116,17
355,65	113,66
355,86	116,41
356,07	118,63
356,28	117,20
356,49	116,84
356,70	110,97
356,92	106,34
357,13	102,85
357,34	98,37
357,55	95,26
357,76	93,11
357,98	88,88
358,19	94,01
358,40	92,68
358,61	95,02
358,82	97,59
359,03	97,40
359,25	102,36
359,46	102,93
359,67	105,65
359,88	98,56
360,09	111,00
360,30	109,65
360,51	106,89
360,73	107,12
360,94	102,22
361,15	101,69
361,36	98,56
361,57	100,04
361,78	94,58
362,00	93,59
362,21	91,77
362,42	96,29
362,63	90,15
362,84	99,40
363,05	106,23
363,26	105,56
363,48	106,02
363,69	114,91
363,90	108,74
364,11	109,90
364,32	110,48
364,53	109,95
364,74	109,65
364,95	105,66
365,17	107,58
365,38	97,46
365,59	106,82
365,80	110,05
366,01	109,30
366,22	110,99
366,43	104,44
366,64	107,43
366,86	106,44
367,07	112,80
367,28	102,03
367,49	111,57
367,70	105,56
367,91	106,14
368,12	106,64
368,33	106,43
368,54	99,23
368,76	105,16
368,97	107,04
369,18	108,01
369,39	107,64
369,60	107,57
369,81	111,77
370,02	115,92
370,23	115,13
370,44	117,08
370,65	117,27
370,87	112,80
371,08	111,78
371,29	114,32
371,50	113,21
371,71	112,64
371,92	109,36
372,13	110,41
372,34	115,12
372,55	111,59
372,76	110,85
372,97	112,11
373,18	114,44
373,40	113,09
373,61	108,20
373,82	102,84
374,03	99,66
374,24	104,02
374,45	103,36
374,66	105,25
374,87	113,52
375,08	115,47
375,29	115,37
375,50	115,09
375,71	116,72
375,92	106,91
376,13	109,57
376,34	110,93
376,56	111,26
376,77	113,50
376,98	115,02
377,19	114,03
377,40	107,41
377,61	115,26
377,82	111,50
378,03	111,16
378,24	110,66
378,45	101,23
378,66	107,36
378,87	102,38
379,08	102,10
379,29	104,15
379,50	97,79
379,71	100,71
379,92	103,94
380,13	101,91
380,34	106,66
380,55	109,74
380,76	116,16
380,97	114,41
381,18	112,21
381,39	112,56
381,60	105,28
381,81	107,45
382,02	103,38
382,24	95,21
382,45	98,92
382,66	101,01
382,87	104,55
383,08	102,40
383,29	108,17
383,50	111,44
383,71	105,87
383,92	108,85
384,13	107,42
384,34	107,83
384,55	105,81
384,76	111,75
384,97	115,39
385,18	115,26
385,39	112,97
385,60	116,05
385,81	119,24
386,02	109,84
386,23	116,69
386,44	118,89
386,65	116,22
386,86	115,46
387,07	108,78
387,28	104,40
387,49	100,91
387,70	94,81
387,91	90,25
388,12	98,38
388,32	96,32
388,53	97,08
388,74	100,06
388,95	105,45
389,16	108,11
389,37	114,96
389,58	116,59
389,79	117,16
390,00	116,76
390,21	118,47
390,42	118,01
390,63	119,32
390,84	119,73
391,05	119,74
391,26	122,31
391,47	115,67
391,68	112,21
391,89	106,86
392,10	105,55
392,31	102,70
392,52	100,56
392,73	101,46
392,94	96,44
393,15	105,40
393,36	99,04
393,57	102,67
393,78	108,75
393,98	115,90
394,19	133,74
394,40	149,99
394,61	157,90
394,82	173,81
395,03	169,99
395,24	159,75
395,45	146,77
395,66	129,47
395,87	125,07
396,08	111,38
396,29	111,05
396,50	100,02
396,71	102,36
396,92	104,56
397,12	102,69
397,33	101,22
397,54	101,07
397,75	99,73
397,96	100,76
398,17	97,80
398,38	110,57
398,59	112,29
398,80	115,76
399,01	119,27
399,22	118,50
399,43	120,26
399,63	114,22
399,84	122,63
400,05	117,17
400,26	115,30
400,47	116,54
400,68	119,66
400,89	112,80
401,10	114,63
401,31	110,65
401,52	108,46
401,72	101,18
401,93	110,93
402,14	113,68
402,35	112,33
402,56	116,57
402,77	108,36
402,98	114,79
403,19	112,95
403,40	119,40
403,60	132,11
403,81	142,41
404,02	157,68
404,23	177,26
404,44	195,64
404,65	196,01
404,86	181,50
405,07	168,75
405,27	149,57
405,48	135,94
405,69	129,05
405,90	125,39
406,11	118,88
406,32	116,21
406,53	114,35
406,74	108,80
406,94	113,58
407,15	113,49
407,36	113,01
407,57	108,15
407,78	108,19
407,99	110,85
408,20	104,61
408,40	108,10
408,61	110,66
408,82	105,34
409,03	110,56
409,24	113,54
409,45	109,26
409,65	120,43
409,86	124,43
410,07	121,59
410,28	124,93
410,49	125,79
410,70	122,98
410,90	125,45
411,11	126,13
411,32	124,52
411,53	124,70
411,74	132,23
411,95	131,02
412,15	134,17
412,36	129,40
412,57	135,28
412,78	138,21
412,99	140,17
413,20	143,70
413,40	144,30
413,61	142,79
413,82	135,54
414,03	133,69
414,24	130,33
414,44	127,37
414,65	134,05
414,86	148,80
415,07	202,23
415,28	274,75
415,48	356,87
415,69	435,96
415,90	491,73
416,11	492,87
416,32	445,63
416,53	369,64
416,73	302,73
416,94	236,19
417,15	203,46
417,36	168,50
417,56	161,79
417,77	159,87
417,98	175,56
418,19	194,76
418,40	213,69
418,60	234,40
418,81	261,89
419,02	302,69
419,23	372,99
419,44	432,65
419,64	501,13
419,85	567,73
420,06	590,69
420,27	568,56
420,47	498,00
420,68	392,06
420,89	302,88
421,10	227,31
421,30	174,96
421,51	153,34
421,72	141,83
421,93	127,74
422,14	125,45
422,34	122,47
422,55	122,13
422,76	118,49
422,97	122,65
423,17	120,53
423,38	117,87
423,59	117,94
423,80	117,04
424,00	121,72
424,21	122,29
424,42	122,64
424,63	130,10
424,83	137,60
425,04	157,49
425,25	175,76
425,46	200,12
425,66	228,93
425,87	253,09
426,08	266,04
426,28	288,58
426,49	296,21
426,70	305,54
426,91	304,49
427,11	303,65
427,32	280,76
427,53	254,33
427,74	225,39
427,94	192,26
428,15	161,37
428,36	137,68
428,56	133,08
428,77	131,25
428,98	135,56
429,19	144,02
429,39	165,24
429,60	188,39
429,81	207,76
430,01	220,60
430,22	211,70
430,43	204,55
430,64	177,70
430,84	168,65
431,05	144,88
431,26	137,46
431,46	135,70
431,67	127,32
431,88	131,23
432,08	128,44
432,29	131,82
432,50	147,70
432,70	162,76
432,91	187,59
433,12	215,33
433,33	232,81
433,53	245,03
433,74	238,67
433,95	230,49
434,15	212,63
434,36	193,54
434,57	181,67
434,77	170,74
434,98	158,63
435,19	144,64
435,39	136,33
435,60	131,32
435,81	125,66
436,01	124,55
436,22	121,86
436,43	118,22
436,63	120,28
436,84	121,52
437,05	122,05
437,25	122,43
437,46	123,34
437,67	127,89
437,87	123,33
438,08	126,22
438,29	127,51
438,49	125,65
438,70	132,82
438,91	132,90
439,11	139,59
439,32	138,76
439,52	136,31
439,73	129,07
439,94	127,62
440,14	122,11
440,35	119,89
440,56	120,62
440,76	121,34
440,97	122,06
441,18	119,88
441,38	117,43
441,59	122,33
441,79	121,69
442,00	123,93
442,21	117,56
442,41	115,36
442,62	121,08
442,83	119,16
443,03	117,65
443,24	115,44
443,44	118,84
443,65	117,04
443,86	122,61
444,06	120,29
444,27	120,81
444,48	116,99
444,68	121,42
444,89	118,12
445,09	115,98
445,30	117,35
445,51	113,04
445,71	120,91
445,92	126,42
446,12	119,16
446,33	123,09
446,54	119,59
446,74	120,07
446,95	120,82
447,15	122,85
447,36	121,26
447,57	120,23
447,77	121,17
447,98	116,89
448,18	118,56
448,39	118,70
448,59	124,16
448,80	123,24
449,01	134,01
449,21	145,00
449,42	150,32
449,62	152,17
449,83	156,81
450,04	151,06
450,24	157,32
450,45	154,35
450,65	156,86
450,86	167,12
451,06	170,02
451,27	169,10
451,47	164,76
451,68	163,99
451,89	155,16
452,09	152,96
452,30	149,95
452,50	148,67
452,71	145,99
452,91	138,95
453,12	136,71
453,33	123,80
453,53	125,24
453,74	130,76
453,94	126,77
454,15	129,62
454,35	165,41
454,56	238,49
454,76	354,10
454,97	473,14
455,17	602,25
455,38	693,80
455,58	702,31
455,79	618,11
456,00	506,85
456,20	387,11
456,41	286,01
456,61	216,66
456,82	174,99
457,02	154,38
457,23	137,50
457,43	127,48
457,64	118,34
457,84	118,74
458,05	119,11
458,25	122,02
458,46	125,42
458,66	127,32
458,87	131,75
459,07	131,09
459,28	136,70
459,48	141,39
459,69	141,99
459,89	136,77
460,10	138,63
460,30	133,08
460,51	130,48
460,71	132,27
460,92	128,64
461,12	128,60
461,33	130,19
461,53	128,24
461,74	128,71
461,94	126,60
462,15	130,60
462,35	133,08
462,56	134,08
462,76	138,02
462,97	139,87
463,17	133,17
463,38	132,12
463,58	130,68
463,79	134,90
463,99	132,85
464,20	136,80
464,40	136,47
464,61	135,05
464,81	135,41
465,02	134,52
465,22	138,32
465,43	141,86
465,63	149,01
465,83	163,15
466,04	192,23
466,24	222,42
466,45	265,26
466,65	289,06
466,86	298,62
467,06	289,24
467,27	268,78
467,47	236,26
467,68	201,03
467,88	172,25
468,08	156,94
468,29	144,37
468,49	131,01
468,70	131,18
468,90	130,57
469,11	128,84
469,31	129,42
469,52	130,24
469,72	139,92
469,92	145,81
470,13	148,70
470,33	156,40
470,54	152,22
470,74	153,51
470,95	148,33
471,15	144,43
471,35	141,01
471,56	139,82
471,76	137,14
471,97	135,28
472,17	133,88
472,38	134,55
472,58	134,90
472,78	136,59
472,99	137,57
473,19	137,02
473,40	138,73
473,60	137,02
473,80	139,93
474,01	145,33
474,21	147,06
474,42	160,48
474,62	173,26
474,83	184,19
475,03	198,17
475,23	199,83
475,44	203,39
475,64	192,85
475,85	177,23
476,05	169,45
476,25	160,01
476,46	156,72
476,66	154,96
476,86	155,67
477,07	153,10
477,27	158,98
477,48	145,71
477,68	147,95
477,88	133,27
478,09	141,81
478,29	148,68
478,50	149,08
478,70	145,06
478,90	152,08
479,11	147,40
479,31	148,71
479,51	153,55
479,72	152,56
479,92	154,45
480,12	158,72
480,33	155,65
480,53	151,54
480,74	155,63
480,94	158,20
481,14	155,08
481,35	156,12
481,55	155,30
481,75	155,34
481,96	152,69
482,16	150,59
482,36	154,26
482,57	162,17
482,77	151,55
482,97	159,27
483,18	159,01
483,38	159,40
483,58	167,83
483,79	168,23
483,99	164,07
484,19	165,73
484,40	165,39
484,60	162,77
484,80	161,57
485,01	159,17
485,21	165,66
485,41	160,76
485,62	158,06
485,82	162,50
486,02	164,50
486,23	165,37
486,43	169,45
486,63	168,40
486,84	171,51
487,04	168,88
487,24	173,96
487,45	172,10
487,65	177,00
487,85	177,20
488,06	174,80
488,26	185,52
488,46	187,02
488,67	194,85
488,87	190,77
489,07	202,36
489,27	197,30
489,48	191,61
489,68	182,86
489,88	181,68
490,09	177,64
490,29	176,03
490,49	170,15
490,70	174,28
490,90	166,70
491,10	167,52
491,30	173,75
491,51	172,12
491,71	173,22
491,91	175,21
492,12	180,92
492,32	207,81
492,52	278,39
492,72	400,69
492,93	543,45
493,13	698,95
493,33	828,19
493,53	859,04
493,74	807,88
493,94	699,57
494,14	549,16
494,34	418,28
494,55	329,30
494,75	275,14
494,95	243,67
495,16	224,65
495,36	207,56
495,56	203,31
495,76	200,55
495,97	190,82
496,17	190,84
496,37	184,71
496,57	191,35
496,78	221,06
496,98	300,67
497,18	472,15
497,38	755,40
497,59	1145,87
497,79	1533,62
497,99	1905,97
498,19	2127,32
498,39	2144,40
498,60	1936,22
498,80	1606,27
499,00	1207,67
499,20	881,12
499,41	637,65
499,61	479,95
499,81	370,27
500,01	295,88
500,22	247,22
500,42	219,59
500,62	201,82
500,82	199,87
501,02	193,61
501,23	195,26
501,43	190,99
501,63	190,42
501,83	185,17
502,03	185,31
502,24	185,55
502,44	186,03
502,64	187,73
502,84	186,73
503,05	192,23
503,25	191,40
503,45	195,97
503,65	188,51
503,85	194,03
504,06	197,61
504,26	192,53
504,46	198,98
504,66	201,59
504,86	203,93
505,06	203,37
505,27	212,23
505,47	211,86
505,67	213,76
505,87	215,47
506,07	218,99
506,28	220,16
506,48	210,79
506,68	207,54
506,88	204,13
507,08	201,74
507,28	199,89
507,49	202,15
507,69	199,54
507,89	198,64
508,09	203,30
508,29	207,18
508,49	209,26
508,70	213,41
508,90	212,07
509,10	205,76
509,30	209,03
509,50	209,58
509,70	199,40
509,91	204,99
510,11	209,82
510,31	203,75
510,51	208,07
510,71	205,08
510,91	213,08
511,11	210,77
511,32	209,94
511,52	214,80
511,72	217,48
511,92	217,39
512,12	216,30
512,32	211,92
512,52	208,87
512,73	209,86
512,93	212,78
513,13	210,36
513,33	212,67
513,53	208,09
513,73	215,57
513,93	238,74
514,13	262,30
514,34	331,24
514,54	417,39
514,74	533,08
514,94	638,13
515,14	718,01
515,34	753,89
515,54	738,45
515,74	669,23
515,94	578,80
516,15	497,35
516,35	415,63
516,55	355,29
516,75	317,31
516,95	287,17
517,15	268,01
517,35	250,13
517,55	250,06
517,75	247,08
517,95	251,72
518,16	259,40
518,36	268,70
518,56	272,18
518,76	283,31
518,96	279,52
519,16	277,47
519,36	269,51
519,56	257,03
519,76	251,87
519,96	249,44
520,16	252,55
520,37	245,02
520,57	256,01
520,77	251,19
520,97	251,92
521,17	253,26
521,37	260,65
521,57	267,16
521,77	275,79
521,97	285,13
522,17	294,91
522,37	294,95
522,57	288,56
522,77	279,29
522,97	269,39
523,17	261,30
523,37	258,12
523,58	256,09
523,78	258,61
523,98	259,60
524,18	251,12
524,38	257,56
524,58	262,50
524,78	268,24
524,98	274,04
525,18	282,98
525,38	283,25
525,58	282,73
525,78	278,67
525,98	279,65
526,18	272,49
526,38	272,33
526,58	269,55
526,78	268,35
526,98	259,48
527,18	258,41
527,38	265,22
527,58	263,58
527,78	263,57
527,98	270,94
528,18	265,32
528,38	269,42
528,58	272,90
528,78	268,68
528,98	272,08
529,18	270,08
529,38	271,72
529,58	265,58
529,78	267,62
529,98	274,43
530,18	274,51
530,38	268,42
530,58	270,63
530,78	274,32
530,98	278,98
531,18	279,39
531,38	276,47
531,58	279,88
531,78	283,36
531,98	279,14
532,18	282,39
532,38	284,49
532,58	279,35
532,78	278,83
532,98	281,49
533,18	279,92
533,38	279,58
533,58	291,69
533,78	292,62
533,98	299,32
534,18	299,18
534,38	300,81
534,58	302,08
534,78	297,56
534,98	295,17
535,18	298,41
535,38	290,91
535,58	287,70
535,78	294,81
535,98	292,43
536,18	299,85
536,38	296,48
536,58	303,82
536,78	300,16
536,98	293,93
537,18	298,41
537,38	301,97
537,58	300,64
537,78	300,34
537,98	302,30
538,17	300,40
538,37	307,09
538,57	309,55
538,77	310,58
538,97	307,89
539,17	312,86
539,37	314,71
539,57	317,16
539,77	319,55
539,97	319,81
540,17	323,65
540,37	326,05
540,57	333,66
540,77	332,03
540,97	339,05
541,16	337,18
541,36	337,88
541,56	341,84
541,76	336,88
541,96	343,40
542,16	341,33
542,36	334,33
542,56	334,21
542,76	331,08
542,96	334,24
543,16	329,99
543,36	333,54
543,55	336,83
543,75	340,91
543,95	350,42
544,15	352,37
544,35	354,52
544,55	359,94
544,75	361,15
544,95	365,88
545,15	364,12
545,35	361,71
545,54	366,57
545,74	366,64
545,94	356,67
546,14	358,49
546,34	350,36
546,54	351,86
546,74	349,44
546,94	353,76
547,14	354,33
547,33	351,27
547,53	351,65
547,73	355,92
547,93	352,52
548,13	354,96
548,33	356,37
548,53	365,27
548,72	377,57
548,92	387,07
549,12	405,93
549,32	427,17
549,52	450,50
549,72	448,83
549,92	446,30
550,12	439,53
550,31	433,32
550,51	415,54
550,71	405,07
550,91	402,17
551,11	398,06
551,31	393,99
551,50	383,71
551,70	389,87
551,90	389,46
552,10	395,76
552,30	403,15
552,50	405,70
552,70	413,71
552,89	421,58
553,09	429,39
553,29	434,22
553,49	438,77
553,69	441,81
553,88	443,25
554,08	437,72
554,28	444,84
554,48	440,78
554,68	443,25
554,88	448,27
555,07	457,96
555,27	469,12
555,47	485,98
555,67	505,56
555,87	507,51
556,06	514,81
556,26	515,75
556,46	511,72
556,66	502,40
556,86	495,00
557,06	495,09
557,25	498,05
557,45	501,55
557,65	491,42
557,85	483,55
558,05	476,42
558,24	478,13
558,44	474,96
558,64	478,16
558,84	480,69
559,03	490,24
559,23	496,79
559,43	510,28
559,63	522,77
559,83	533,95
560,02	551,90
560,22	560,49
560,42	573,83
560,62	578,95
560,82	575,35
561,01	574,32
561,21	564,74
561,41	554,79
561,61	552,91
561,80	557,79
562,00	564,72
562,20	570,19
562,40	577,03
562,59	578,80
562,79	575,71
562,99	582,07
563,19	580,42
563,38	575,52
563,58	582,19
563,78	588,99
563,98	601,62
564,17	612,23
564,37	623,52
564,57	639,67
564,77	653,03
564,96	662,49
565,16	662,15
565,36	671,88
565,56	667,28
565,75	672,47
565,95	669,37
566,15	670,01
566,35	675,33
566,54	682,25
566,74	699,31
566,94	758,40
567,14	1036,65
567,33	1716,22
567,53	2836,37
567,73	4747,94
567,92	7640,11
568,12	11185,91
568,32	14537,47
568,52	17617,66
568,71	19543,06
568,91	19715,97
569,11	18117,58
569,30	15203,40
569,50	12301,18
569,70	9171,53
569,90	6609,97
570,09	4922,31
570,29	3709,37
570,49	2856,19
570,68	2155,38
570,88	1678,06
571,08	1356,06
571,27	1155,49
571,47	1049,34
571,67	997,53
571,87	972,89
572,06	959,75
572,26	961,91
572,46	962,43
572,65	974,97
572,85	979,35
573,05	1005,54
573,24	1013,48
573,44	1029,99
573,64	1062,27
573,83	1083,58
574,03	1113,82
574,23	1167,58
574,42	1191,49
574,62	1240,27
574,82	1281,55
575,01	1314,34
575,21	1363,51
575,41	1409,14
575,60	1425,59
575,80	1447,22
576,00	1461,80
576,19	1471,04
576,39	1470,12
576,59	1501,28
576,78	1513,42
576,98	1541,11
577,18	1566,23
577,37	1592,78
577,57	1631,00
577,77	1654,48
577,96	1667,43
578,16	1709,06
578,35	1736,57
578,55	1762,67
578,75	1809,92
578,94	1824,15
579,14	1881,26
579,34	1918,01
579,53	1958,41
579,73	2008,96
579,93	2056,26
580,12	2121,19
580,32	2161,68
580,51	2229,52
580,71	2296,33
580,91	2338,74
581,10	2408,90
581,30	2454,93
581,50	2503,68
581,69	2540,73
581,89	2588,89
582,08	2637,71
582,28	2675,73
582,48	2749,15
582,67	2796,35
582,87	2876,96
583,06	2949,55
583,26	3051,14
583,46	3159,42
583,65	3253,82
583,85	3416,52
584,04	3597,50
584,24	3832,80
584,44	4198,06
584,63	4651,16
584,83	5139,90
585,02	5670,81
585,22	6204,57
585,42	6717,54
585,61	7102,72
585,81	7524,14
586,00	7922,07
586,20	8333,64
586,39	8759,03
586,59	9422,74
586,79	10302,11
586,98	11274,33
587,18	12900,33
587,37	16023,72
587,57	64220,02
587,76	64210,33
587,96	64220,43
588,16	64213,58
588,35	64218,20
588,55	64220,28
588,74	64218,10
588,94	64222,67
589,13	64213,34
589,33	64221,15
589,52	64219,81
589,72	64214,65
589,92	64217,99
590,11	64211,67
590,31	64216,85
590,50	64209,83
590,70	64216,79
590,89	64222,09
591,09	64219,47
591,28	64218,89
591,48	64219,45
591,67	64214,33
591,87	64225,46
592,06	64214,60
592,26	64215,66
592,46	64212,66
592,65	64221,22
592,85	64216,24
593,04	64221,16
593,24	64213,95
593,43	64222,94
593,63	64220,02
593,82	64224,77
594,02	64215,04
594,21	64216,79
594,41	64210,81
594,60	64221,93
594,80	64215,52
594,99	64221,95
595,19	64214,08
595,38	64219,25
595,58	64214,97
595,77	64221,63
595,97	64221,75
596,16	64223,13
596,36	64217,72
596,55	64224,42
596,75	64218,41
596,94	64233,40
597,14	64214,12
597,33	64217,05
597,53	64215,10
597,72	64216,39
597,92	64218,40
598,11	64227,22
598,31	64211,13
598,50	64217,44
598,70	64220,93
598,89	64222,64
599,09	64220,85
599,28	64226,15
599,48	64208,04
599,67	64208,30
599,87	64212,28
600,06	64225,81
600,26	64220,10
600,45	64219,89
600,64	64213,03
600,84	64218,18
601,03	64217,24
601,23	64220,61
601,42	64217,69
601,62	64212,29
601,81	64213,11
602,01	64215,38
602,20	64219,44
602,40	64218,85
602,59	64215,53
602,78	64223,69
602,98	64215,36
603,17	64220,93
603,37	64215,16
603,56	64221,24
603,76	64214,22
603,95	64220,28
604,15	64212,84
604,34	64217,12
604,53	64218,48
604,73	64220,92
604,92	64214,44
605,12	64219,74
605,31	64216,41
605,51	64221,51
605,70	64212,49
605,89	64214,77
606,09	64218,16
606,28	64225,65
606,48	64196,87
606,67	64220,96
606,87	64217,85
607,06	64222,77
607,25	64213,71
607,45	64219,52
607,64	64218,93
607,84	64218,26
608,03	64209,82
608,22	64222,69
608,42	64214,92
608,61	64227,28
608,81	64208,11
609,00	64221,36
609,19	64210,24
609,39	64223,18
609,58	64219,05
609,78	64213,76
609,97	64218,24
610,16	64219,42
610,36	64220,40
610,55	64223,94
610,75	64219,99
610,94	64222,88
611,13	64218,53
611,33	64221,99
611,52	64214,72
611,71	64222,25
611,91	64209,22
612,10	64221,78
612,30	64212,72
612,49	64218,07
612,68	64216,61
612,88	64224,82
613,07	64215,96
613,26	64225,60
613,46	64213,79
613,65	64224,89
613,84	64212,14
614,04	64215,96
614,23	64218,67
614,43	64216,63
614,62	64219,25
614,81	64224,25
615,01	64215,40
615,20	64215,52
615,39	64215,65
615,59	64225,42
615,78	64218,46
615,97	64218,08
616,17	64210,64
616,36	64218,63
616,55	64216,42
616,75	59745,53
616,94	63347,34
617,13	25608,43
617,33	47441,72
617,52	1701,16
617,71	11998,38
617,91	1296,81
618,10	1168,86
618,29	1045,44
618,49	970,53
618,68	910,81
618,87	874,57
619,07	846,44
619,26	836,94
619,45	818,08
619,65	808,00
619,84	798,21
620,03	790,10
620,22	792,88
620,42	780,47
620,61	777,96
620,80	779,20
621,00	774,06
621,19	772,96
621,38	779,11
621,58	763,52
621,77	763,89
621,96	753,42
622,15	755,57
622,35	739,81
622,54	737,18
622,73	733,94
622,93	731,28
623,12	728,94
623,31	723,79
623,50	714,59
623,70	712,91
623,89	707,95
624,08	695,99
624,28	700,19
624,47	695,15
624,66	692,28
624,85	698,99
625,05	691,00
625,24	686,42
625,43	690,41
625,62	681,21
625,82	672,98
626,01	664,19
626,20	667,30
626,39	658,75
626,59	657,08
626,78	648,26
626,97	642,67
627,17	647,54
627,36	638,29
627,55	637,60
627,74	636,80
627,93	632,18
628,13	629,93
628,32	625,38
628,51	623,90
628,70	632,43
628,90	623,75
629,09	626,08
629,28	626,22
629,47	633,52
629,67	627,78
629,86	632,19
630,05	634,93
630,24	633,05
630,44	627,91
630,63	625,69
630,82	623,24
631,01	620,06
631,20	606,36
631,40	606,73
631,59	602,03
631,78	595,97
631,97	583,89
632,16	575,75
632,36	574,97
632,55	573,57
632,74	568,52
632,93	564,19
633,13	552,69
633,32	562,29
633,51	556,50
633,70	555,28
633,89	556,67
634,09	554,24
634,28	550,75
634,47	549,58
634,66	548,51
634,85	546,13
635,04	542,05
635,24	544,12
635,43	539,10
635,62	537,97
635,81	541,34
636,00	536,43
636,20	543,02
636,39	547,30
636,58	547,39
636,77	545,97
636,96	543,83
637,15	543,64
637,35	540,95
637,54	538,09
637,73	537,11
637,92	532,06
638,11	535,12
638,30	537,89
638,50	536,42
638,69	538,45
638,88	525,55
639,07	519,43
639,26	521,89
639,45	508,50
639,64	506,52
639,84	501,23
640,03	500,74
640,22	494,37
640,41	490,96
640,60	488,00
640,79	500,98
640,98	518,46
641,18	539,30
641,37	557,65
641,56	558,91
641,75	576,61
641,94	560,63
642,13	549,20
642,32	534,30
642,52	518,30
642,71	501,91
642,90	494,35
643,09	485,91
643,28	478,75
643,47	473,81
643,66	475,52
643,85	473,46
644,04	464,22
644,24	461,18
644,43	465,10
644,62	457,22
644,81	450,91
645,00	451,48
645,19	453,94
645,38	443,04
645,57	451,42
645,76	446,75
645,96	438,23
646,15	443,37
646,34	444,62
646,53	435,91
646,72	440,42
646,91	432,09
647,10	436,09
647,29	423,78
647,48	423,77
647,67	417,48
647,86	423,62
648,05	414,88
648,25	418,05
648,44	404,05
648,63	428,65
648,82	430,40
649,01	449,95
649,20	475,36
649,39	491,31
649,58	503,55
649,77	512,91
649,96	504,53
650,15	487,02
650,34	466,81
650,53	454,14
650,72	429,69
650,91	421,42
651,11	411,92
651,30	404,83
651,49	403,35
651,68	395,28
651,87	399,20
652,06	389,02
652,25	378,98
652,44	382,18
652,63	380,69
652,82	377,12
653,01	378,98
653,20	373,55
653,39	373,53
653,58	379,03
653,77	374,63
653,96	375,77
654,15	372,75
654,34	374,54
654,53	369,48
654,72	364,97
654,91	366,14
655,10	361,91
655,29	357,43
655,48	361,25
655,67	358,23
655,86	364,62
656,05	364,37
656,24	363,78
656,43	356,81
656,62	355,68
656,81	356,52
657,00	354,97
657,19	342,99
657,38	344,97
657,57	341,55
657,76	333,79
657,95	336,45
658,14	332,33
658,33	327,42
658,52	334,92
658,71	334,23
658,90	334,50
659,09	333,50
659,28	330,41
659,47	334,67
659,66	337,61
659,85	332,07
660,04	334,97
660,23	336,61
660,42	331,72
660,61	333,33
660,80	327,76
660,99	329,45
661,18	325,26
661,37	322,03
661,56	316,17
661,75	317,71
661,94	311,21
662,13	310,54
662,32	316,86
662,51	305,12
662,70	309,07
662,89	304,09
663,08	308,44
663,27	310,19
663,46	303,51
663,65	298,42
663,83	295,63
664,02	301,72
664,21	299,87
664,40	296,62
664,59	301,92
664,78	295,62
664,97	296,94
665,16	294,37
665,35	294,56
665,54	294,53
665,73	293,64
665,92	297,19
666,11	306,79
666,30	298,98
666,49	294,85
666,67	302,13
666,86	305,98
667,05	323,67
667,24	341,95
667,43	352,07
667,62	363,24
667,81	363,39
668,00	358,99
668,19	345,43
668,38	334,48
668,57	322,23
668,76	310,59
668,94	298,51
669,13	291,81
669,32	291,12
669,51	283,58
669,70	272,33
669,89	279,27
670,08	272,26
670,27	266,17
670,46	266,98
670,64	262,69
670,83	257,78
671,02	255,54
671,21	260,89
671,40	257,02
671,59	258,99
671,78	251,92
671,97	253,06
672,16	251,81
672,34	252,69
672,53	247,73
672,72	247,49
672,91	250,12
673,10	247,82
673,29	242,03
673,48	241,61
673,66	247,24
673,85	242,33
674,04	246,69
674,23	255,06
674,42	268,53
674,61	297,86
674,80	323,13
674,98	356,25
675,17	373,07
675,36	379,77
675,55	374,26
675,74	365,27
675,93	341,91
676,12	319,66
676,30	307,93
676,49	289,87
676,68	279,18
676,87	271,33
677,06	259,06
677,25	256,72
677,43	249,19
677,62	237,91
677,81	233,06
678,00	232,82
678,19	228,98
678,37	226,93
678,56	223,95
678,75	223,53
678,94	215,46
679,13	220,17
679,32	213,25
679,50	216,41
679,69	213,10
679,88	218,42
680,07	215,75
680,26	213,01
680,44	208,37
680,63	214,22
680,82	209,60
681,01	215,55
681,20	210,68
681,38	215,01
681,57	214,09
681,76	211,84
681,95	205,29
682,14	211,05
682,32	213,16
682,51	204,73
682,70	207,83
682,89	211,83
683,07	207,58
683,26	207,16
683,45	205,33
683,64	207,57
683,83	202,65
684,01	203,35
684,20	207,61
684,39	206,10
684,58	206,51
684,76	202,17
684,95	201,81
685,14	201,74
685,33	203,33
685,52	200,91
685,70	202,89
685,89	203,04
686,08	219,11
686,27	231,41
686,45	252,75
686,64	279,23
686,83	304,15
687,02	322,62
687,20	331,13
687,39	316,73
687,58	313,10
687,76	295,94
687,95	281,64
688,14	269,45
688,33	261,02
688,51	258,05
688,70	247,04
688,89	238,94
689,08	232,25
689,26	227,21
689,45	219,89
689,64	217,62
689,83	211,50
690,01	203,44
690,20	201,74
690,39	199,80
690,57	198,05
690,76	200,11
690,95	196,41
691,14	191,76
691,32	194,70
691,51	193,22
691,70	189,89
691,88	193,74
692,07	196,12
692,26	197,96
692,44	196,62
692,63	201,17
692,82	202,01
693,01	217,40
693,19	225,12
693,38	240,53
693,57	249,39
693,75	253,63
693,94	249,83
694,13	250,51
694,31	243,95
694,50	242,90
694,69	237,43
694,87	242,66
695,06	280,05
695,25	470,57
695,43	994,79
695,62	1943,89
695,81	3368,21
695,99	5145,02
696,18	7002,74
696,37	8483,49
696,55	9120,83
696,74	8911,40
696,93	8216,83
697,11	7255,60
697,30	6143,81
697,49	5105,04
697,67	4233,63
697,86	3488,69
698,05	2826,40
698,23	2296,45
698,42	1851,99
698,61	1489,93
698,79	1199,08
698,98	954,00
699,17	756,32
699,35	582,73
699,54	449,77
699,72	359,77
699,91	301,76
700,10	256,95
700,28	233,80
700,47	226,04
700,66	215,53
700,84	204,48
701,03	206,05
701,21	197,82
701,40	199,58
701,59	197,34
701,77	200,21
701,96	208,01
702,15	219,57
702,33	244,06
702,52	268,80
702,70	294,69
702,89	304,93
703,08	308,33
703,26	305,19
703,45	297,25
703,63	281,95
703,82	268,06
704,01	256,36
704,19	245,61
704,38	237,03
704,56	233,50
704,75	224,47
704,94	219,83
705,12	228,11
705,31	275,73
705,49	465,12
705,68	887,37
705,86	1616,72
706,05	2638,98
706,24	3802,64
706,42	4886,72
706,61	5587,31
706,79	5808,20
706,98	5525,87
707,17	5027,29
707,35	4414,06
707,54	3732,21
707,72	3135,98
707,91	2609,01
708,09	2202,33
708,28	1809,20
708,46	1478,19
708,65	1213,85
708,84	999,64
709,02	824,57
709,21	678,43
709,39	552,71
709,58	446,60
709,76	363,47
709,95	310,54
710,13	270,94
710,32	252,77
710,50	240,33
710,69	225,24
710,88	224,60
711,06	215,79
711,25	214,76
711,43	209,32
711,62	206,37
711,80	203,50
711,99	207,63
712,17	205,51
712,36	209,95
712,54	207,12
712,73	205,35
712,91	201,12
713,10	202,50
713,28	202,49
713,47	224,74
713,65	266,74
713,84	335,92
714,02	439,56
714,21	555,42
714,39	672,88
714,58	740,47
714,76	759,90
714,95	731,71
715,13	689,81
715,32	628,72
715,50	560,54
715,69	512,85
715,87	460,32
716,06	410,71
716,24	374,93
716,43	334,52
716,61	309,72
716,80	286,98
716,98	265,72
717,17	249,31
717,35	236,04
717,54	224,18
717,72	212,55
717,91	208,58
718,09	201,00
718,28	194,89
718,46	193,45
718,65	192,50
718,83	188,22
719,01	188,09
719,20	187,47
719,38	188,77
719,57	189,59
719,75	197,34
719,94	199,57
720,12	206,87
720,31	215,47
720,49	211,18
720,68	214,80
720,86	217,43
721,04	216,17
721,23	209,38
721,41	204,90
721,60	197,87
721,78	197,11
721,97	196,03
722,15	192,93
722,34	190,50
722,52	190,92
722,70	194,26
722,89	190,72
723,07	190,68
723,26	187,28
723,44	189,21
723,63	190,37
723,81	187,65
723,99	183,77
724,18	188,44
724,36	184,26
724,55	188,23
724,73	185,50
724,91	187,97
725,10	187,15
725,28	191,89
725,47	194,99
725,65	190,29
725,83	205,61
726,02	253,52
726,20	374,01
726,39	583,50
726,57	903,82
726,75	1257,28
726,94	1607,84
727,12	1859,94
727,31	1938,45
727,49	1922,31
727,67	1767,92
727,86	1591,64
728,04	1392,34
728,23	1224,85
728,41	1073,27
728,59	938,61
728,78	816,94
728,96	697,60
729,14	598,59
729,33	519,32
729,51	444,73
729,69	390,46
729,88	343,95
730,06	313,49
730,25	279,05
730,43	258,36
730,61	244,06
730,80	230,93
730,98	226,78
731,16	222,27
731,35	216,67
731,53	219,07
731,71	214,44
731,90	209,23
732,08	206,25
732,26	203,21
732,45	201,24
732,63	196,47
732,81	193,14
733,00	195,69
733,18	188,87
733,36	194,52
733,55	192,96
733,73	190,48
733,91	189,87
734,10	193,99
734,28	200,65
734,46	207,04
734,65	217,83
734,83	225,11
735,01	231,01
735,20	239,26
735,38	245,78
735,56	239,91
735,75	235,92
735,93	236,50
736,11	240,26
736,30	249,29
736,48	264,34
736,66	299,38
736,84	341,18
737,03	487,67
737,21	857,50
737,39	1613,36
737,58	2807,72
737,76	4475,88
737,94	6136,69
738,12	7689,27
738,31	8434,44
738,49	8600,78
738,67	8157,11
738,86	7351,05
739,04	6474,82
739,22	5608,74
739,40	4821,46
739,59	4222,69
739,77	3589,63
739,95	3034,26
740,14	2496,54
740,32	2068,89
740,50	1699,19
740,68	1413,58
740,87	1169,90
741,05	969,21
741,23	799,20
741,41	653,82
741,60	522,64
741,78	426,69
741,96	345,85
742,14	291,86
742,33	265,32
742,51	247,73
742,69	236,79
742,87	240,27
743,06	237,13
743,24	241,95
743,42	240,36
743,60	238,40
743,79	236,85
743,97	230,54
744,15	223,83
744,33	218,09
744,52	213,74
744,70	212,68
744,88	204,11
745,06	201,67
745,24	196,20
745,43	201,49
745,61	200,62
745,79	193,50
745,97	195,38
746,16	200,62
746,34	203,33
746,52	202,27
746,70	208,42
746,88	208,54
747,07	206,97
747,25	207,13
747,43	209,69
747,61	211,61
747,79	216,65
747,98	217,00
748,16	216,84
748,34	221,82
748,52	220,89
748,70	228,22
748,89	271,67
749,07	402,04
749,25	756,23
749,43	1379,61
749,61	2382,48
749,79	3679,03
749,98	4881,77
750,16	6058,42
750,34	6799,42
750,52	7553,59
750,70	8193,11
750,88	9059,17
751,07	9734,33
751,25	10201,86
751,43	10094,37
751,61	9664,35
751,79	8820,47
751,97	7847,54
752,16	6795,81
752,34	5899,17
752,52	5101,60
752,70	4472,74
752,88	3816,63
753,06	3211,82
753,25	2684,75
753,43	2228,03
753,61	1838,53
753,79	1533,06
753,97	1241,19
754,15	1017,63
754,33	837,47
754,52	690,60
754,70	561,45
754,88	452,05
755,06	376,24
755,24	323,50
755,42	283,41
755,60	262,49
755,78	239,68
755,97	233,49
756,15	227,45
756,33	222,90
756,51	225,66
756,69	220,26
756,87	220,19
757,05	220,79
757,23	218,92
757,41	216,80
757,60	217,29
757,78	220,80
757,96	218,14
758,14	219,86
758,32	224,20
758,50	222,18
758,68	220,31
758,86	220,58
759,04	222,13
759,22	225,79
759,41	227,05
759,59	223,49
759,77	226,11
759,95	231,78
760,13	231,38
760,31	232,76
760,49	237,07
760,67	246,96
760,85	247,51
761,03	254,23
761,21	260,29
761,39	265,19
761,57	272,30
761,76	294,21
761,94	382,97
762,12	828,12
762,30	2087,30
762,48	4632,55
762,66	9110,79
762,84	15509,32
763,02	22404,57
763,20	28687,16
763,38	31777,89
763,56	32820,24
763,74	31497,71
763,92	29035,70
764,10	25716,21
764,28	22659,72
764,46	19950,89
764,64	17805,39
764,82	15711,30
765,00	13812,41
765,19	11809,64
765,37	10223,61
765,55	8873,22
765,73	7932,21
765,91	7305,74
766,09	6838,47
766,27	6374,64
766,45	5794,35
766,63	5180,93
766,81	4480,51
766,99	3790,41
767,17	3173,98
767,35	2674,52
767,53	2313,71
767,71	2014,13
767,89	1756,94
768,07	1526,46
768,25	1323,15
768,43	1150,04
768,61	1035,31
768,79	998,87
768,97	1062,39
769,15	1222,18
769,33	1475,78
769,51	1679,68
769,69	1853,02
769,87	1869,39
770,05	1825,50
770,23	1701,74
770,41	1552,44
770,59	1411,21
770,77	1304,26
770,95	1297,48
771,13	1554,96
771,31	2199,78
771,49	3464,32
771,67	5456,47
771,85	7938,16
772,03	10264,96
772,21	11804,57
772,38	12279,90
772,56	12056,39
772,74	11135,15
772,92	9988,79
773,10	8725,46
773,28	7675,97
773,46	6788,15
773,64	6141,89
773,82	5417,47
774,00	4745,32
774,18	4059,04
774,36	3476,95
774,54	2916,82
774,72	2475,31
774,90	2059,83
775,08	1732,78
775,26	1435,46
775,44	1209,11
775,62	985,70
775,80	810,35
775,97	643,72
776,15	523,58
776,33	425,49
776,51	357,83
776,69	309,16
776,87	277,96
777,05	260,63
777,23	250,12
777,41	240,00
777,59	240,14
777,77	231,58
777,95	235,48
778,13	231,76
778,30	228,45
778,48	226,66
778,66	224,89
778,84	229,96
779,02	225,86
779,20	225,49
779,38	226,08
779,56	225,09
779,74	225,93
779,92	227,26
780,09	226,50
780,27	223,35
780,45	226,04
780,63	219,61
780,81	219,58
780,99	221,71
781,17	223,97
781,35	216,62
781,52	223,42
781,70	217,69
781,88	216,14
782,06	222,21
782,24	215,34
782,42	215,93
782,60	214,53
782,78	212,02
782,95	214,48
783,13	216,25
783,31	216,25
783,49	210,76
783,67	215,84
783,85	213,49
784,03	208,64
784,20	213,85
784,38	210,68
784,56	214,19
784,74	210,52
784,92	215,29
785,10	215,52
785,28	211,37
785,45	217,36
785,63	214,34
785,81	212,38
785,99	212,36
786,17	216,05
786,35	218,30
786,52	215,25
786,70	215,63
786,88	216,02
787,06	212,28
787,24	212,21
787,41	212,74
787,59	216,68
787,77	214,65
787,95	211,52
788,13	215,09
788,31	218,47
788,48	217,79
788,66	220,98
788,84	230,32
789,02	228,34
789,20	222,26
789,37	229,88
789,55	222,73
789,73	219,77
789,91	218,95
790,09	220,14
790,26	226,90
790,44	222,77
790,62	223,99
790,80	220,75
790,98	217,92
791,15	217,73
791,33	219,66
791,51	221,69
791,69	219,31
791,86	223,90
792,04	219,31
792,22	217,91
792,40	215,61
792,58	219,31
792,75	226,92
792,93	222,02
793,11	227,32
793,29	262,21
793,46	391,18
793,64	723,59
793,82	1344,50
794,00	2411,10
794,17	3812,08
794,35	5238,42
794,53	6337,48
794,71	6941,21
794,88	6931,10
795,06	6542,17
795,24	5898,58
795,42	5268,51
795,59	4626,92
795,77	4212,55
795,95	3918,23
796,13	3608,67
796,30	3268,26
796,48	2923,05
796,66	2577,78
796,83	2263,96
797,01	1945,27
797,19	1688,79
797,37	1443,81
797,54	1248,19
797,72	1071,44
797,90	930,89
798,08	791,72
798,25	687,31
798,43	573,61
798,61	488,22
798,78	414,69
798,96	364,63
799,14	355,93
799,31	426,94
799,49	615,88
799,67	1010,46
799,85	1643,91
800,02	2492,72
800,20	3388,32
800,38	4292,24
800,55	5237,55
800,73	6463,15
800,91	7677,49
801,08	8679,10
801,26	9141,64
801,44	9185,78
801,61	8831,22
801,79	8207,12
801,97	7410,89
802,15	6713,25
802,32	5982,98
802,50	5510,45
802,68	5004,83
802,85	4578,37
803,03	4081,30
803,21	3648,09
803,38	3174,70
803,56	2761,10
803,74	2375,28
803,91	2027,65
804,09	1720,91
804,26	1473,31
804,44	1250,09
804,62	1054,04
804,79	888,13
804,97	750,90
805,15	623,40
805,32	529,92
805,50	443,13
805,68	377,16
805,85	331,12
806,03	298,96
806,21	275,28
806,38	266,04
806,56	256,78
806,73	256,23
806,91	254,02
807,09	245,95
807,26	252,85
807,44	253,13
807,62	250,22
807,79	251,32
807,97	250,72
808,14	262,63
808,32	264,50
808,50	269,10
808,67	282,46
808,85	341,72
809,02	525,92
809,20	962,89
809,38	1773,91
809,55	3080,89
809,73	4840,45
809,90	6585,80
810,08	8119,64
810,26	9511,21
810,43	11125,88
810,61	13806,19
810,78	17958,85
810,96	22476,79
811,14	26620,66
811,31	29436,92
811,49	30057,54
811,66	28874,36
811,84	27102,09
812,02	24649,42
812,19	22028,92
812,37	19829,99
812,54	18126,10
812,72	16849,49
812,89	15502,26
813,07	14186,53
813,25	12649,74
813,42	11204,58
813,60	9683,69
813,77	8429,53
813,95	7083,48
814,12	6086,36
814,30	5081,60
814,47	4248,53
814,65	3582,93
814,83	3022,90
815,00	2476,53
815,18	2022,62
815,35	1633,11
815,53	1287,95
815,70	1003,91
815,88	783,89
816,05	628,62
816,23	527,98
816,40	465,92
816,58	450,24
816,75	508,67
816,93	813,27
817,10	1549,12
817,28	3015,73
817,46	5454,21
817,63	9054,83
817,81	12878,39
817,98	16189,21
818,16	18569,81
818,33	20868,84
818,51	23399,34
818,68	27575,04
818,86	32913,67
819,03	37895,19
819,21	41012,11
819,38	42742,31
819,56	41869,89
819,73	40104,09
819,91	37240,71
820,08	34375,04
820,26	31269,21
820,43	28972,71
820,61	26922,41
820,78	25072,76
820,96	23082,24
821,13	20927,96
821,31	18664,15
821,48	16432,23
821,66	14315,77
821,83	12380,98
822,00	10569,44
822,18	8842,65
822,35	7283,45
822,53	6097,30
822,70	5025,46
822,88	4158,81
823,05	3432,73
823,23	2765,35
823,40	2180,86
823,58	1699,08
823,75	1278,41
823,93	979,35
824,10	749,58
824,28	583,91
824,45	473,64
824,62	409,47
824,80	375,86
824,97	379,59
825,15	470,90
825,32	702,92
825,50	1124,58
825,67	1773,54
825,85	2558,99
826,02	3311,47
826,19	3808,39
826,37	4075,92
826,54	4083,05
826,72	3955,64
826,89	3675,65
827,07	3412,53
827,24	3128,75
827,41	2945,23
827,59	2788,13
827,76	2665,82
827,94	2487,74
828,11	2295,24
828,28	2112,99
828,46	1920,75
828,63	1704,71
828,81	1526,59
828,98	1336,67
829,15	1167,82
829,33	1015,67
829,50	888,59
829,68	776,53
829,85	685,51
830,02	601,61
830,20	517,53
830,37	452,01
830,55	388,07
830,72	334,02
830,89	292,05
831,07	260,70
831,24	232,73
831,42	214,11
831,59	205,65
831,76	197,72
831,94	189,98
832,11	189,75
832,28	187,51
832,46	180,40
832,63	181,81
832,81	181,05
832,98	177,32
833,15	175,08
833,33	177,80
833,50	179,29
833,67	180,78
833,85	179,55
834,02	174,56
834,19	175,34
834,37	175,72
834,54	170,92
834,71	174,95
834,89	175,74
835,06	175,56
835,23	175,53
835,41	174,73
835,58	171,17
835,75	172,72
835,93	172,04
836,10	176,86
836,27	170,33
836,45	172,99
836,62	167,82
836,79	171,59
836,97	165,85
837,14	171,34
837,31	168,11
837,49	172,21
837,66	171,95
837,83	175,39
838,01	177,00
838,18	176,42
838,35	178,42
838,53	182,01
838,70	177,47
838,87	191,78
839,04	199,52
839,22	218,36
839,39	280,16
839,56	436,21
839,74	728,84
839,91	1247,84
840,08	1952,56
840,26	2798,78
840,43	3641,03
840,60	4369,93
840,77	4787,69
840,95	5025,37
841,12	5095,72
841,29	5124,34
841,46	5276,25
841,64	5845,14
841,81	6552,54
841,98	7535,47
842,16	8379,26
842,33	9042,77
842,50	9161,09
842,67	9105,47
842,85	8613,97
843,02	8149,46
843,19	7471,51
843,36	6900,43
843,54	6398,15
843,71	5986,84
843,88	5600,85
844,05	5191,74
844,23	4716,50
844,40	4282,47
844,57	3816,84
844,74	3420,11
844,92	2974,36
845,09	2594,24
845,26	2235,98
845,43	1920,67
845,61	1634,66
845,78	1388,95
845,95	1201,98
846,12	1019,82
846,29	858,42
846,47	728,66
846,64	604,32
846,81	508,45
846,98	415,19
847,16	341,91
847,33	282,69
847,50	242,69
847,67	209,60
847,84	188,16
848,02	184,12
848,19	171,34
848,36	163,55
848,53	160,31
848,70	159,17
848,88	156,73
849,05	154,35
849,22	154,19
849,39	151,43
849,56	153,32
849,74	149,71
849,91	150,56
850,08	148,93
850,25	152,54
850,42	156,95
850,60	161,50
850,77	178,93
850,94	227,26
851,11	308,69
851,28	459,49
851,45	654,11
851,63	918,51
851,80	1160,50
851,97	1394,32
852,14	1562,75
852,31	1676,88
852,48	1698,62
852,66	1677,07
852,83	1599,26
853,00	1524,12
853,17	1440,60
853,34	1387,29
853,51	1322,30
853,68	1275,00
853,86	1204,78
854,03	1130,83
854,20	1035,70
854,37	954,32
854,54	878,22
854,71	785,73
854,88	707,01
855,06	632,67
855,23	564,73
855,40	504,84
855,57	451,05
855,74	399,93
855,91	362,27
856,08	319,56
856,25	285,08
856,43	254,18
856,60	225,97
856,77	205,86
856,94	180,36
857,11	166,13
857,28	157,85
857,45	145,60
857,62	139,48
857,79	135,63
857,97	128,25
858,14	134,49
858,31	127,83
858,48	126,92
858,65	126,83
858,82	127,00
858,99	121,96
859,16	127,25
859,33	122,15
859,50	123,23
859,67	123,03
859,85	124,45
860,02	121,61
860,19	118,68
860,36	106,36
860,53	121,13
860,70	126,74
860,87	124,42
861,04	120,76
861,21	122,91
861,38	122,71
861,55	122,59
861,72	123,82
861,89	122,73
862,06	128,12
862,23	123,51
862,41	122,71
862,58	117,83
862,75	123,46
862,92	122,52
863,09	122,86
863,26	120,27
863,43	119,78
863,60	118,98
863,77	117,86
863,94	117,45
864,11	113,44
864,28	116,16
864,45	112,62
864,62	112,93
864,79	115,73
864,96	120,29
865,13	114,53
865,30	116,95
865,47	121,96
865,64	125,33
865,81	129,20
865,98	142,51
866,15	167,43
866,32	201,44
866,49	231,07
866,66	276,74
866,83	310,74
867,00	340,13
867,17	363,37
867,34	386,09
867,51	382,55
867,68	370,33
867,85	357,00
868,02	345,60
868,19	341,19
868,36	328,27
868,53	317,79
868,70	303,65
868,87	283,42
869,04	270,72
869,21	261,15
869,38	242,94
869,55	229,01
869,72	210,60
869,89	200,24
870,06	191,06
870,23	180,02
870,40	164,67
870,57	157,52
870,74	149,36
870,91	141,23
871,08	136,42
871,25	135,64
871,42	120,42
871,59	116,73
871,76	112,49
871,93	111,37
872,10	108,61
872,27	106,96
872,44	101,28
872,60	102,02
872,77	104,10
872,94	100,71
873,11	96,08
873,28	100,44
873,45	100,58
873,62	102,19
873,79	98,31
873,96	99,85
874,13	105,38
874,30	101,32
874,47	105,77
874,64	101,89
874,81	97,72
874,97	96,07
875,14	93,34
875,31	94,31
875,48	92,28
875,65	96,30
875,82	94,33
875,99	97,01
876,16	92,12
876,33	98,03
876,50	94,97
876,67	98,49
876,83	94,41
877,00	97,91
877,17	99,55
877,34	99,26
877,51	96,13
877,68	93,99
877,85	94,61
878,02	95,74
878,19	90,56
878,35	94,07
878,52	88,77
878,69	90,78
878,86	92,82
879,03	88,36
879,20	90,85
879,37	91,48
879,54	87,96
879,70	92,67
879,87	89,15
880,04	90,99
880,21	91,35
880,38	87,78
880,55	87,84
880,72	88,31
880,89	88,23
881,05	83,38
881,22	86,46
881,39	86,87
881,56	90,07
881,73	91,06
881,90	87,33
882,06	80,21
882,23	89,00
882,40	86,64
882,57	87,66
882,74	84,67
882,91	84,63
883,07	85,73
883,24	88,25
883,41	86,94
883,58	81,95
883,75	83,64
883,92	81,83
884,08	81,00
884,25	83,99
884,42	79,91
884,59	81,15
884,76	80,19
884,92	80,96
885,09	82,92
885,26	85,71
885,43	83,42
885,60	85,27
885,76	80,50
885,93	86,05
886,10	82,51
886,27	84,57
886,44	82,86
886,60	83,36
886,77	82,44
886,94	80,12
887,11	84,21
887,28	81,80
887,44	79,71
887,61	77,13
887,78	81,40
887,95	77,54
888,12	77,79
888,28	75,98
888,45	75,03
888,62	78,65
888,79	75,73
888,95	76,79
889,12	77,34
889,29	77,85
889,46	75,13
889,62	76,17
889,79	70,69
889,96	74,46
890,13	74,22
890,29	78,46
890,46	72,19
890,63	71,17
890,80	73,40
890,96	76,44
891,13	77,01
891,30	73,82
891,47	75,06
891,63	74,99
891,80	72,01
891,97	74,79
892,14	71,20
892,30	71,34
892,47	71,29
892,64	69,77
892,80	70,54
892,97	71,17
893,14	72,47
893,31	69,74
893,47	66,29
893,64	73,90
893,81	69,76
893,97	73,13
894,14	69,18

