SpectraSuite Datei
++++++++++++++++++++++++++++++++++++
Datum: Mon Jan 08 17:03:13 CET 2018
Benutzer: Praktikum-Pc1
Dark-Spektrum vorhanden: Ja
Referenz-Spektrum vorhanden: Nein
Zahl der probierten Teilspektren: 1
Spektrometer: USB4H10187
Integrationszeit (usec): 5000 (USB4H10187)
Spektren Durchschnitt berechnet: 400 (USB4H10187)
Boxcar Glâ€°ttung: 0 (USB4H10187)
Dunkelstromkorrektur: Nein (USB4H10187)
Puls/Lampe aktiviert: Nein (USB4H10187)
Correct for Detector Non-linearity: Nein (USB4H10187)
Streulichtkorrektur: Nein (USB4H10187)
Anzahl Pixel in verarbeitetem Spektrum: 3648
>>>>>Begin Processed Spectral Data<<<<<
176,80	0,17
177,02	0,17
177,24	0,17
177,46	-2,79
177,68	2,49
177,91	0,41
178,13	-1,09
178,35	0,92
178,57	3,08
178,79	-0,27
179,02	-0,89
179,24	-0,78
179,46	2,09
179,68	-0,79
179,90	0,95
180,12	1,47
180,35	3,08
180,57	3,47
180,79	4,52
181,01	-0,22
181,23	3,35
181,46	6,22
181,68	1,94
181,90	6,90
182,12	5,64
182,34	1,75
182,56	-0,00
182,79	4,36
183,01	2,78
183,23	3,74
183,45	-1,34
183,67	8,09
183,89	0,66
184,12	4,77
184,34	3,37
184,56	2,35
184,78	4,66
185,00	6,80
185,22	3,51
185,45	0,59
185,67	0,24
185,89	5,67
186,11	5,41
186,33	2,46
186,55	3,57
186,77	3,60
187,00	1,11
187,22	1,36
187,44	2,82
187,66	3,06
187,88	5,46
188,10	6,04
188,32	-1,74
188,55	6,84
188,77	3,01
188,99	8,17
189,21	5,82
189,43	2,15
189,65	7,96
189,87	4,68
190,10	4,18
190,32	2,59
190,54	4,95
190,76	3,57
190,98	1,87
191,20	1,77
191,42	-0,44
191,64	2,29
191,87	-0,81
192,09	2,24
192,31	5,88
192,53	3,43
192,75	6,86
192,97	1,69
193,19	5,08
193,41	2,69
193,64	5,12
193,86	4,63
194,08	4,41
194,30	3,12
194,52	0,46
194,74	2,40
194,96	3,60
195,18	6,71
195,40	4,02
195,63	3,43
195,85	3,35
196,07	-0,51
196,29	2,75
196,51	5,82
196,73	4,91
196,95	3,68
197,17	1,12
197,39	7,55
197,61	3,87
197,84	5,46
198,06	2,27
198,28	4,69
198,50	2,59
198,72	5,65
198,94	4,44
199,16	-0,24
199,38	5,77
199,60	7,19
199,82	4,87
200,04	0,74
200,26	1,40
200,49	4,04
200,71	4,58
200,93	6,13
201,15	4,18
201,37	0,52
201,59	5,18
201,81	4,49
202,03	3,52
202,25	6,55
202,47	2,83
202,69	3,66
202,91	4,89
203,13	7,59
203,35	4,55
203,58	5,76
203,80	7,52
204,02	4,06
204,24	4,40
204,46	0,74
204,68	4,94
204,90	6,22
205,12	1,15
205,34	5,29
205,56	2,00
205,78	5,05
206,00	2,32
206,22	6,32
206,44	5,30
206,66	9,88
206,88	7,73
207,10	5,49
207,32	4,53
207,54	1,14
207,76	5,66
207,99	8,24
208,21	5,80
208,43	4,54
208,65	4,74
208,87	1,02
209,09	5,64
209,31	7,37
209,53	5,57
209,75	1,84
209,97	8,24
210,19	1,94
210,41	5,81
210,63	7,56
210,85	4,46
211,07	5,96
211,29	-0,55
211,51	8,31
211,73	7,98
211,95	5,76
212,17	9,14
212,39	8,03
212,61	5,05
212,83	2,22
213,05	3,31
213,27	1,67
213,49	5,72
213,71	1,36
213,93	6,12
214,15	4,92
214,37	1,48
214,59	2,03
214,81	3,57
215,03	4,89
215,25	6,92
215,47	3,83
215,69	5,59
215,91	6,13
216,13	5,72
216,35	4,32
216,57	5,17
216,79	5,76
217,01	2,52
217,23	6,70
217,45	7,63
217,67	4,39
217,89	2,72
218,11	2,62
218,33	1,98
218,55	8,15
218,77	6,89
218,99	3,81
219,21	1,85
219,43	3,92
219,65	6,25
219,87	2,93
220,09	9,67
220,31	1,44
220,53	4,04
220,75	1,31
220,97	0,76
221,19	3,76
221,41	2,78
221,63	2,99
221,85	6,32
222,06	2,02
222,28	7,15
222,50	4,22
222,72	3,94
222,94	6,35
223,16	5,68
223,38	3,19
223,60	2,27
223,82	6,90
224,04	5,41
224,26	5,81
224,48	6,72
224,70	5,18
224,92	6,14
225,14	6,52
225,36	3,93
225,58	8,24
225,80	6,42
226,02	4,39
226,24	3,51
226,45	5,02
226,67	4,03
226,89	1,85
227,11	9,78
227,33	4,06
227,55	5,87
227,77	7,19
227,99	1,82
228,21	6,52
228,43	8,06
228,65	4,80
228,87	4,03
229,09	1,43
229,31	5,96
229,52	7,48
229,74	2,78
229,96	2,35
230,18	3,31
230,40	2,92
230,62	1,48
230,84	11,21
231,06	0,01
231,28	8,34
231,50	5,56
231,72	1,21
231,94	5,43
232,15	2,76
232,37	2,32
232,59	3,99
232,81	6,31
233,03	2,98
233,25	5,28
233,47	4,96
233,69	3,74
233,91	2,71
234,13	7,56
234,34	6,05
234,56	7,71
234,78	7,13
235,00	7,40
235,22	6,85
235,44	5,45
235,66	6,95
235,88	5,94
236,10	7,43
236,31	8,20
236,53	2,25
236,75	8,52
236,97	-1,02
237,19	4,89
237,41	8,77
237,63	5,81
237,85	2,14
238,07	6,92
238,28	6,33
238,50	3,67
238,72	5,03
238,94	8,26
239,16	6,92
239,38	4,04
239,60	5,48
239,81	2,72
240,03	1,66
240,25	1,90
240,47	7,63
240,69	6,81
240,91	2,47
241,13	6,48
241,34	8,14
241,56	5,70
241,78	5,60
242,00	4,62
242,22	5,91
242,44	3,32
242,66	5,55
242,87	6,46
243,09	3,98
243,31	7,82
243,53	4,69
243,75	6,28
243,97	5,13
244,19	6,94
244,40	7,43
244,62	6,96
244,84	6,20
245,06	6,08
245,28	10,21
245,50	6,83
245,71	8,39
245,93	6,22
246,15	7,70
246,37	7,94
246,59	5,79
246,81	7,68
247,02	10,63
247,24	7,00
247,46	11,25
247,68	4,50
247,90	9,37
248,11	13,87
248,33	8,80
248,55	8,91
248,77	9,43
248,99	11,06
249,21	10,99
249,42	6,95
249,64	7,63
249,86	9,32
250,08	8,40
250,30	5,78
250,51	8,40
250,73	10,76
250,95	11,37
251,17	10,09
251,39	10,99
251,60	14,38
251,82	7,73
252,04	7,83
252,26	12,19
252,48	10,43
252,69	8,66
252,91	10,16
253,13	10,54
253,35	8,33
253,57	10,32
253,78	12,58
254,00	11,77
254,22	8,39
254,44	9,55
254,65	11,79
254,87	12,17
255,09	6,26
255,31	7,37
255,53	15,45
255,74	9,39
255,96	10,88
256,18	8,25
256,40	8,55
256,61	12,53
256,83	10,74
257,05	7,39
257,27	8,52
257,48	11,57
257,70	8,00
257,92	15,01
258,14	10,52
258,36	15,29
258,57	8,50
258,79	11,01
259,01	11,99
259,23	11,32
259,44	13,32
259,66	11,97
259,88	13,20
260,10	13,51
260,31	9,72
260,53	10,15
260,75	12,62
260,97	12,73
261,18	8,93
261,40	11,95
261,62	11,16
261,84	13,75
262,05	10,21
262,27	14,61
262,49	12,36
262,71	12,95
262,92	12,60
263,14	10,26
263,36	11,83
263,57	9,06
263,79	11,04
264,01	13,34
264,23	13,98
264,44	15,99
264,66	12,69
264,88	14,05
265,10	11,96
265,31	11,13
265,53	11,93
265,75	14,98
265,96	11,17
266,18	16,27
266,40	14,99
266,62	13,14
266,83	13,80
267,05	14,75
267,27	11,43
267,48	13,78
267,70	13,81
267,92	13,29
268,14	11,51
268,35	7,77
268,57	9,10
268,79	14,47
269,00	12,49
269,22	13,83
269,44	16,24
269,65	13,76
269,87	11,83
270,09	15,17
270,31	12,73
270,52	13,22
270,74	14,37
270,96	13,85
271,17	14,49
271,39	13,29
271,61	18,74
271,82	17,45
272,04	11,17
272,26	15,03
272,47	14,50
272,69	14,87
272,91	13,27
273,12	10,83
273,34	13,20
273,56	14,12
273,77	11,36
273,99	15,87
274,21	12,05
274,42	17,88
274,64	15,53
274,86	13,84
275,08	14,28
275,29	12,06
275,51	12,02
275,72	12,30
275,94	10,93
276,16	11,13
276,37	14,40
276,59	9,32
276,81	12,87
277,02	16,88
277,24	11,57
277,46	14,64
277,67	13,40
277,89	11,73
278,11	13,95
278,32	12,28
278,54	12,64
278,76	12,46
278,97	11,00
279,19	9,21
279,41	8,18
279,62	15,53
279,84	14,51
280,05	11,38
280,27	17,15
280,49	11,14
280,70	11,70
280,92	12,01
281,14	11,15
281,35	13,04
281,57	10,19
281,79	9,52
282,00	9,58
282,22	14,26
282,43	11,11
282,65	8,80
282,87	8,93
283,08	9,52
283,30	9,00
283,52	10,26
283,73	8,62
283,95	7,83
284,16	6,33
284,38	10,87
284,60	8,73
284,81	11,87
285,03	8,58
285,24	13,47
285,46	12,43
285,68	10,26
285,89	8,31
286,11	9,17
286,32	10,94
286,54	12,21
286,76	7,28
286,97	8,09
287,19	12,42
287,40	11,74
287,62	8,74
287,84	8,75
288,05	10,87
288,27	11,63
288,48	9,53
288,70	12,15
288,92	5,99
289,13	11,32
289,35	8,71
289,56	9,59
289,78	9,05
289,99	7,47
290,21	8,27
290,43	7,23
290,64	6,95
290,86	6,19
291,07	8,90
291,29	11,00
291,51	10,50
291,72	9,28
291,94	7,10
292,15	9,30
292,37	7,97
292,58	8,21
292,80	7,64
293,01	10,70
293,23	10,31
293,45	8,51
293,66	10,18
293,88	14,73
294,09	16,57
294,31	14,71
294,52	10,20
294,74	10,60
294,96	11,68
295,17	12,43
295,39	7,50
295,60	8,50
295,82	9,24
296,03	6,65
296,25	12,63
296,46	8,63
296,68	8,64
296,89	7,98
297,11	8,61
297,32	11,64
297,54	10,84
297,76	5,59
297,97	5,89
298,19	6,45
298,40	12,43
298,62	5,51
298,83	8,55
299,05	8,27
299,26	8,81
299,48	4,91
299,69	3,13
299,91	9,78
300,12	6,59
300,34	6,32
300,55	9,91
300,77	9,65
300,98	12,25
301,20	8,18
301,41	10,69
301,63	8,31
301,84	8,44
302,06	9,91
302,28	11,89
302,49	9,91
302,71	12,63
302,92	14,09
303,14	9,87
303,35	13,60
303,57	11,79
303,78	11,73
304,00	4,92
304,21	10,75
304,43	9,88
304,64	10,19
304,86	11,41
305,07	14,38
305,29	10,37
305,50	6,52
305,71	11,10
305,93	11,83
306,14	11,20
306,36	14,81
306,57	10,93
306,79	9,70
307,00	9,08
307,22	8,10
307,43	12,93
307,65	11,59
307,86	14,33
308,08	11,55
308,29	11,24
308,51	8,42
308,72	13,20
308,94	9,53
309,15	10,31
309,37	6,69
309,58	8,37
309,80	11,30
310,01	10,94
310,22	5,59
310,44	4,61
310,65	12,15
310,87	8,90
311,08	9,32
311,30	13,13
311,51	8,83
311,73	10,94
311,94	11,79
312,16	8,45
312,37	13,11
312,58	7,01
312,80	14,88
313,01	13,07
313,23	15,38
313,44	10,59
313,66	9,50
313,87	11,23
314,09	11,05
314,30	13,60
314,51	8,71
314,73	9,62
314,94	8,52
315,16	10,18
315,37	8,36
315,59	10,80
315,80	10,88
316,01	9,85
316,23	15,81
316,44	14,49
316,66	13,69
316,87	12,46
317,09	10,73
317,30	12,08
317,51	11,87
317,73	11,01
317,94	12,27
318,16	8,68
318,37	12,99
318,58	9,30
318,80	8,59
319,01	13,15
319,23	15,83
319,44	9,98
319,66	11,80
319,87	13,38
320,08	9,90
320,30	10,26
320,51	11,86
320,73	4,85
320,94	9,63
321,15	8,70
321,37	11,96
321,58	13,54
321,80	10,11
322,01	13,03
322,22	11,54
322,44	12,06
322,65	8,95
322,86	13,82
323,08	13,56
323,29	11,17
323,51	11,13
323,72	13,14
323,93	11,45
324,15	9,65
324,36	12,30
324,58	12,23
324,79	10,29
325,00	8,05
325,22	12,70
325,43	10,92
325,64	14,82
325,86	12,64
326,07	14,16
326,28	14,83
326,50	9,65
326,71	10,52
326,93	13,77
327,14	14,82
327,35	17,31
327,57	15,91
327,78	17,41
327,99	15,79
328,21	15,12
328,42	20,02
328,63	24,37
328,85	30,22
329,06	70,34
329,27	203,83
329,49	385,27
329,70	559,03
329,91	703,48
330,13	776,32
330,34	715,05
330,56	574,57
330,77	412,83
330,98	259,27
331,20	129,01
331,41	65,28
331,62	30,23
331,84	21,47
332,05	16,72
332,26	18,85
332,48	17,09
332,69	15,75
332,90	13,18
333,11	13,92
333,33	14,84
333,54	14,05
333,75	14,36
333,97	12,86
334,18	9,34
334,39	12,14
334,61	10,58
334,82	12,37
335,03	8,95
335,25	14,32
335,46	10,30
335,67	17,75
335,89	11,99
336,10	17,86
336,31	15,61
336,53	15,58
336,74	14,16
336,95	12,19
337,16	17,25
337,38	12,79
337,59	11,93
337,80	13,77
338,02	7,85
338,23	13,27
338,44	12,47
338,65	13,46
338,87	9,54
339,08	9,34
339,29	4,82
339,51	11,08
339,72	10,04
339,93	13,05
340,14	14,38
340,36	10,02
340,57	8,81
340,78	10,48
341,00	14,51
341,21	8,99
341,42	13,92
341,63	11,85
341,85	14,30
342,06	18,87
342,27	14,00
342,49	17,37
342,70	12,64
342,91	11,15
343,12	12,56
343,34	12,53
343,55	14,74
343,76	15,72
343,97	15,01
344,19	13,53
344,40	12,69
344,61	11,93
344,82	18,65
345,04	9,21
345,25	11,13
345,46	11,93
345,67	12,79
345,89	11,14
346,10	10,90
346,31	12,76
346,52	14,32
346,74	18,89
346,95	13,55
347,16	14,99
347,37	13,12
347,59	12,58
347,80	14,73
348,01	19,48
348,22	13,00
348,43	14,51
348,65	13,33
348,86	11,24
349,07	13,98
349,28	14,53
349,50	12,00
349,71	11,87
349,92	17,01
350,13	11,06
350,34	12,37
350,56	8,96
350,77	13,13
350,98	12,01
351,19	10,05
351,41	10,76
351,62	13,94
351,83	12,17
352,04	11,72
352,25	12,25
352,47	10,88
352,68	12,74
352,89	15,29
353,10	16,12
353,31	18,51
353,53	14,82
353,74	13,12
353,95	14,43
354,16	16,34
354,37	17,21
354,59	11,30
354,80	17,00
355,01	18,26
355,22	17,19
355,43	10,52
355,65	17,79
355,86	18,03
356,07	15,38
356,28	17,17
356,49	16,40
356,70	11,95
356,92	11,40
357,13	16,25
357,34	13,05
357,55	9,49
357,76	12,46
357,98	16,27
358,19	13,68
358,40	13,09
358,61	13,51
358,82	14,69
359,03	10,80
359,25	11,55
359,46	8,77
359,67	15,71
359,88	14,33
360,09	18,90
360,30	16,15
360,51	17,82
360,73	11,28
360,94	14,92
361,15	12,84
361,36	10,13
361,57	11,02
361,78	11,00
362,00	13,75
362,21	11,32
362,42	4,80
362,63	7,51
362,84	19,13
363,05	16,70
363,26	16,99
363,48	17,11
363,69	16,20
363,90	18,23
364,11	14,33
364,32	14,89
364,53	15,85
364,74	16,15
364,95	16,98
365,17	18,78
365,38	14,71
365,59	16,08
365,80	13,36
366,01	17,03
366,22	19,69
366,43	17,65
366,64	17,21
366,86	15,38
367,07	11,46
367,28	15,99
367,49	15,38
367,70	16,89
367,91	16,01
368,12	13,46
368,33	13,55
368,54	10,86
368,76	12,88
368,97	14,49
369,18	16,21
369,39	9,87
369,60	20,04
369,81	16,74
370,02	13,91
370,23	13,06
370,44	19,38
370,65	15,55
370,87	14,99
371,08	15,58
371,29	16,67
371,50	18,37
371,71	16,99
371,92	14,07
372,13	9,52
372,34	19,05
372,55	16,19
372,76	17,84
372,97	16,12
373,18	12,22
373,40	11,89
373,61	17,84
373,82	12,64
374,03	14,96
374,24	16,01
374,45	12,32
374,66	13,12
374,87	16,10
375,08	13,76
375,29	11,66
375,50	17,09
375,71	15,92
375,92	12,88
376,13	15,41
376,34	15,06
376,56	13,28
376,77	18,17
376,98	16,31
377,19	17,69
377,40	12,85
377,61	14,37
377,82	8,95
378,03	14,69
378,24	15,32
378,45	13,31
378,66	11,72
378,87	15,12
379,08	13,08
379,29	15,18
379,50	11,72
379,71	11,04
379,92	12,21
380,13	12,38
380,34	15,87
380,55	8,95
380,76	15,50
380,97	19,89
381,18	13,52
381,39	14,83
381,60	13,00
381,81	17,89
382,02	6,32
382,24	14,11
382,45	14,76
382,66	13,11
382,87	14,57
383,08	14,16
383,29	13,32
383,50	13,19
383,71	16,74
383,92	15,66
384,13	16,38
384,34	16,76
384,55	13,54
384,76	16,84
384,97	16,87
385,18	13,13
385,39	11,98
385,60	16,39
385,81	16,04
386,02	15,64
386,23	13,82
386,44	13,55
386,65	17,22
386,86	10,38
387,07	13,87
387,28	13,90
387,49	11,92
387,70	12,85
387,91	15,00
388,12	10,76
388,32	15,41
388,53	11,88
388,74	14,78
388,95	14,83
389,16	14,67
389,37	15,68
389,58	17,47
389,79	13,51
390,00	14,01
390,21	18,86
390,42	14,81
390,63	18,11
390,84	15,53
391,05	16,45
391,26	16,38
391,47	16,25
391,68	15,48
391,89	12,64
392,10	16,77
392,31	16,12
392,52	12,91
392,73	17,05
392,94	13,64
393,15	14,23
393,36	12,30
393,57	15,22
393,78	13,90
393,98	15,16
394,19	18,59
394,40	22,78
394,61	25,07
394,82	26,16
395,03	23,84
395,24	18,85
395,45	20,14
395,66	17,79
395,87	17,59
396,08	19,35
396,29	12,15
396,50	17,46
396,71	12,42
396,92	15,91
397,12	14,32
397,33	13,94
397,54	17,38
397,75	15,02
397,96	15,79
398,17	11,44
398,38	17,19
398,59	16,00
398,80	14,13
399,01	21,31
399,22	12,40
399,43	22,76
399,63	16,37
399,84	18,72
400,05	13,83
400,26	10,94
400,47	17,82
400,68	15,33
400,89	16,61
401,10	16,42
401,31	17,96
401,52	18,30
401,72	12,69
401,93	15,53
402,14	13,83
402,35	17,70
402,56	19,12
402,77	12,54
402,98	12,58
403,19	17,19
403,40	15,53
403,60	19,33
403,81	22,30
404,02	24,99
404,23	25,64
404,44	20,13
404,65	23,07
404,86	20,90
405,07	20,27
405,27	18,72
405,48	17,76
405,69	18,96
405,90	16,92
406,11	17,13
406,32	20,88
406,53	16,01
406,74	15,20
406,94	13,34
407,15	12,83
407,36	17,29
407,57	13,62
407,78	16,11
407,99	17,03
408,20	15,00
408,40	14,87
408,61	11,56
408,82	11,49
409,03	15,68
409,24	14,46
409,45	15,14
409,65	19,01
409,86	17,14
410,07	16,70
410,28	16,65
410,49	21,44
410,70	12,81
410,90	19,02
411,11	17,85
411,32	15,11
411,53	12,14
411,74	14,60
411,95	18,12
412,15	16,05
412,36	20,32
412,57	21,37
412,78	20,97
412,99	19,63
413,20	20,32
413,40	20,24
413,61	16,33
413,82	20,41
414,03	19,83
414,24	17,15
414,44	17,74
414,65	17,63
414,86	25,73
415,07	34,84
415,28	54,81
415,48	62,86
415,69	75,53
415,90	78,25
416,11	67,09
416,32	57,23
416,53	42,95
416,73	33,82
416,94	27,38
417,15	21,98
417,36	24,54
417,56	21,45
417,77	28,58
417,98	28,70
418,19	32,76
418,40	30,21
418,60	36,90
418,81	39,73
419,02	52,33
419,23	62,50
419,44	71,77
419,64	81,84
419,85	86,25
420,06	84,82
420,27	72,61
420,47	53,33
420,68	41,37
420,89	30,99
421,10	24,68
421,30	23,52
421,51	20,68
421,72	12,16
421,93	14,06
422,14	16,31
422,34	19,16
422,55	15,43
422,76	17,75
422,97	18,95
423,17	15,92
423,38	13,46
423,59	17,10
423,80	18,58
424,00	13,78
424,21	17,56
424,42	17,27
424,63	20,35
424,83	24,60
425,04	26,95
425,25	29,28
425,46	30,95
425,66	32,58
425,87	36,53
426,08	43,80
426,28	39,94
426,49	42,86
426,70	43,81
426,91	44,92
427,11	42,83
427,32	35,04
427,53	29,92
427,74	31,05
427,94	21,29
428,15	15,60
428,36	14,13
428,56	15,32
428,77	13,35
428,98	17,37
429,19	26,19
429,39	25,19
429,60	35,40
429,81	31,91
430,01	30,96
430,22	28,09
430,43	23,10
430,64	26,73
430,84	20,29
431,05	20,76
431,26	13,84
431,46	20,38
431,67	17,55
431,88	15,27
432,08	18,68
432,29	14,48
432,50	27,41
432,70	20,61
432,91	30,45
433,12	32,56
433,33	34,88
433,53	36,70
433,74	31,42
433,95	27,85
434,15	29,12
434,36	29,23
434,57	19,20
434,77	21,18
434,98	19,27
435,19	19,52
435,39	16,87
435,60	15,32
435,81	15,17
436,01	16,21
436,22	12,89
436,43	15,26
436,63	17,27
436,84	20,13
437,05	17,63
437,25	18,80
437,46	18,29
437,67	18,27
437,87	20,84
438,08	16,12
438,29	13,64
438,49	19,62
438,70	22,15
438,91	20,26
439,11	20,91
439,32	19,40
439,52	16,75
439,73	20,32
439,94	17,67
440,14	19,49
440,35	21,22
440,56	15,72
440,76	16,00
440,97	13,12
441,18	20,35
441,38	13,10
441,59	18,14
441,79	17,23
442,00	17,38
442,21	13,89
442,41	11,36
442,62	18,13
442,83	16,37
443,03	17,64
443,24	21,07
443,44	14,00
443,65	17,37
443,86	15,40
444,06	16,56
444,27	15,84
444,48	21,06
444,68	13,98
444,89	13,77
445,09	18,33
445,30	15,23
445,51	14,22
445,71	18,23
445,92	17,90
446,12	15,22
446,33	13,57
446,54	22,30
446,74	15,62
446,95	18,98
447,15	15,17
447,36	16,74
447,57	14,38
447,77	19,34
447,98	18,72
448,18	14,93
448,39	17,14
448,59	20,77
448,80	19,39
449,01	21,82
449,21	22,82
449,42	23,58
449,62	17,81
449,83	23,43
450,04	23,75
450,24	22,15
450,45	23,17
450,65	22,55
450,86	21,43
451,06	25,93
451,27	27,55
451,47	22,64
451,68	21,27
451,89	22,36
452,09	23,32
452,30	22,28
452,50	20,22
452,71	20,17
452,91	19,82
453,12	16,83
453,33	16,38
453,53	19,00
453,74	19,78
453,94	14,66
454,15	20,36
454,35	29,49
454,56	41,50
454,76	69,25
454,97	87,37
455,17	106,81
455,38	113,22
455,58	96,53
455,79	78,75
456,00	54,47
456,20	33,27
456,41	29,84
456,61	22,87
456,82	17,47
457,02	17,90
457,23	13,80
457,43	22,24
457,64	16,00
457,84	14,26
458,05	17,14
458,25	14,69
458,46	15,92
458,66	19,20
458,87	19,56
459,07	17,91
459,28	16,97
459,48	20,70
459,69	22,54
459,89	23,50
460,10	18,43
460,30	14,21
460,51	17,53
460,71	20,42
460,92	14,74
461,12	21,66
461,33	16,62
461,53	14,09
461,74	21,38
461,94	15,39
462,15	20,06
462,35	17,40
462,56	17,35
462,76	18,06
462,97	16,82
463,17	19,11
463,38	16,97
463,58	19,15
463,79	19,73
463,99	18,55
464,20	19,01
464,40	18,76
464,61	20,17
464,81	14,86
465,02	15,54
465,22	17,62
465,43	21,54
465,63	19,69
465,83	25,97
466,04	29,23
466,24	34,26
466,45	40,72
466,65	38,93
466,86	39,97
467,06	34,17
467,27	30,36
467,47	27,20
467,68	22,98
467,88	19,79
468,08	18,76
468,29	16,23
468,49	19,11
468,70	19,01
468,90	19,02
469,11	15,97
469,31	23,90
469,52	16,20
469,72	25,92
469,92	18,26
470,13	21,59
470,33	24,22
470,54	23,27
470,74	21,69
470,95	22,49
471,15	23,07
471,35	18,80
471,56	13,95
471,76	20,06
471,97	23,56
472,17	14,67
472,38	19,57
472,58	20,92
472,78	19,62
472,99	19,05
473,19	18,37
473,40	18,92
473,60	18,24
473,80	19,56
474,01	19,29
474,21	19,80
474,42	24,44
474,62	28,09
474,83	27,09
475,03	25,46
475,23	28,93
475,44	22,73
475,64	24,07
475,85	22,80
476,05	20,97
476,25	23,31
476,46	21,97
476,66	20,61
476,86	21,07
477,07	20,23
477,27	20,69
477,48	23,76
477,68	17,83
477,88	22,16
478,09	18,85
478,29	15,82
478,50	22,02
478,70	18,46
478,90	21,46
479,11	18,48
479,31	20,60
479,51	24,57
479,72	18,75
479,92	21,96
480,12	19,49
480,33	18,59
480,53	22,78
480,74	24,59
480,94	22,30
481,14	22,87
481,35	21,28
481,55	19,77
481,75	18,81
481,96	24,66
482,16	15,25
482,36	17,06
482,57	24,16
482,77	23,79
482,97	17,14
483,18	20,43
483,38	18,83
483,58	24,18
483,79	22,39
483,99	23,87
484,19	20,89
484,40	24,05
484,60	19,27
484,80	18,49
485,01	23,06
485,21	23,19
485,41	24,96
485,62	21,72
485,82	20,80
486,02	26,14
486,23	21,40
486,43	20,15
486,63	25,71
486,84	23,42
487,04	23,59
487,24	26,03
487,45	20,42
487,65	21,91
487,85	25,54
488,06	24,65
488,26	23,90
488,46	22,57
488,67	27,93
488,87	24,62
489,07	25,87
489,27	25,11
489,48	27,61
489,68	24,16
489,88	24,78
490,09	23,66
490,29	24,96
490,49	25,25
490,70	20,02
490,90	25,81
491,10	23,88
491,30	21,04
491,51	19,33
491,71	20,91
491,91	26,66
492,12	26,16
492,32	32,92
492,52	55,28
492,72	74,04
492,93	106,68
493,13	125,56
493,33	134,62
493,53	126,16
493,74	105,88
493,94	75,67
494,14	59,53
494,34	44,33
494,55	33,25
494,75	28,22
494,95	25,83
495,16	26,55
495,36	26,48
495,56	28,46
495,76	26,83
495,97	24,89
496,17	22,83
496,37	29,15
496,57	26,01
496,78	36,83
496,98	51,22
497,18	85,52
497,38	139,99
497,59	206,47
497,79	253,33
497,99	294,71
498,19	288,89
498,39	254,32
498,60	194,67
498,80	142,95
499,00	99,39
499,20	62,65
499,41	47,61
499,61	34,01
499,81	30,83
500,01	26,11
500,22	32,73
500,42	25,86
500,62	23,74
500,82	22,91
501,02	27,28
501,23	25,59
501,43	22,85
501,63	24,79
501,83	25,79
502,03	29,76
502,24	22,52
502,44	23,52
502,64	26,53
502,84	26,65
503,05	26,97
503,25	27,45
503,45	24,26
503,65	24,39
503,85	29,44
504,06	26,19
504,26	26,67
504,46	25,61
504,66	28,52
504,86	24,78
505,06	28,34
505,27	28,91
505,47	30,13
505,67	33,18
505,87	25,72
506,07	29,64
506,28	30,48
506,48	26,50
506,68	27,30
506,88	23,55
507,08	29,13
507,28	30,59
507,49	27,28
507,69	30,18
507,89	24,91
508,09	25,73
508,29	27,01
508,49	27,10
508,70	28,71
508,90	32,12
509,10	31,89
509,30	29,96
509,50	31,05
509,70	29,45
509,91	29,33
510,11	28,63
510,31	33,54
510,51	30,29
510,71	29,92
510,91	27,03
511,11	27,46
511,32	34,29
511,52	29,72
511,72	31,68
511,92	25,71
512,12	27,27
512,32	32,26
512,52	27,66
512,73	31,81
512,93	26,74
513,13	28,11
513,33	33,53
513,53	32,43
513,73	28,54
513,93	32,00
514,13	41,50
514,34	53,32
514,54	72,82
514,74	85,59
514,94	95,79
515,14	107,25
515,34	101,52
515,54	91,81
515,74	75,65
515,94	61,67
516,15	50,70
516,35	41,88
516,55	34,26
516,75	36,26
516,95	33,36
517,15	35,47
517,35	32,57
517,55	33,72
517,75	37,27
517,95	31,01
518,16	36,92
518,36	40,81
518,56	37,28
518,76	37,81
518,96	38,16
519,16	37,18
519,36	37,88
519,56	35,48
519,76	35,17
519,96	33,70
520,16	34,07
520,37	27,80
520,57	35,38
520,77	31,51
520,97	37,34
521,17	37,54
521,37	34,74
521,57	39,24
521,77	39,08
521,97	41,54
522,17	40,79
522,37	36,64
522,57	37,29
522,77	36,79
522,97	34,24
523,17	35,23
523,37	29,27
523,58	37,25
523,78	31,89
523,98	35,44
524,18	36,14
524,38	37,27
524,58	31,60
524,78	33,64
524,98	38,47
525,18	38,10
525,38	39,28
525,58	33,54
525,78	34,72
525,98	39,68
526,18	37,88
526,38	33,80
526,58	34,39
526,78	37,38
526,98	34,71
527,18	33,07
527,38	40,45
527,58	35,04
527,78	38,27
527,98	42,32
528,18	39,56
528,38	36,53
528,58	36,04
528,78	38,46
528,98	39,80
529,18	40,08
529,38	39,22
529,58	36,70
529,78	38,17
529,98	36,99
530,18	35,42
530,38	37,17
530,58	35,77
530,78	37,85
530,98	36,76
531,18	37,69
531,38	42,02
531,58	37,44
531,78	39,20
531,98	37,20
532,18	38,90
532,38	36,66
532,58	34,61
532,78	35,97
532,98	37,77
533,18	40,09
533,38	42,24
533,58	38,51
533,78	42,66
533,98	42,40
534,18	43,97
534,38	38,08
534,58	40,29
534,78	41,69
534,98	41,00
535,18	37,90
535,38	40,78
535,58	41,30
535,78	44,65
535,98	41,36
536,18	43,73
536,38	41,95
536,58	39,15
536,78	46,89
536,98	41,20
537,18	42,34
537,38	39,23
537,58	35,19
537,78	40,00
537,98	40,78
538,17	39,66
538,37	44,19
538,57	41,87
538,77	46,21
538,97	43,80
539,17	43,09
539,37	43,87
539,57	44,43
539,77	43,81
539,97	44,61
540,17	44,34
540,37	49,55
540,57	46,14
540,77	44,34
540,97	44,01
541,16	45,07
541,36	44,83
541,56	45,69
541,76	42,48
541,96	43,98
542,16	48,37
542,36	47,57
542,56	52,03
542,76	46,48
542,96	45,88
543,16	43,03
543,36	41,01
543,55	48,56
543,75	46,08
543,95	41,74
544,15	51,33
544,35	52,55
544,55	44,44
544,75	50,91
544,95	46,91
545,15	49,23
545,35	50,06
545,54	51,41
545,74	47,74
545,94	46,36
546,14	49,35
546,34	43,65
546,54	46,87
546,74	46,34
546,94	45,88
547,14	46,60
547,33	46,93
547,53	48,30
547,73	44,49
547,93	50,75
548,13	52,29
548,33	52,52
548,53	49,84
548,72	50,91
548,92	48,90
549,12	55,36
549,32	61,34
549,52	63,62
549,72	56,19
549,92	59,09
550,12	56,66
550,31	55,63
550,51	56,10
550,71	54,27
550,91	52,57
551,11	54,47
551,31	55,97
551,50	44,48
551,70	56,59
551,90	53,00
552,10	55,75
552,30	61,29
552,50	54,62
552,70	56,49
552,89	58,94
553,09	59,90
553,29	61,79
553,49	56,34
553,69	59,23
553,88	61,35
554,08	54,47
554,28	60,61
554,48	61,67
554,68	63,62
554,88	59,96
555,07	66,47
555,27	68,60
555,47	70,37
555,67	72,58
555,87	66,95
556,06	68,84
556,26	71,24
556,46	66,90
556,66	64,59
556,86	69,22
557,06	65,80
557,25	66,16
557,45	68,39
557,65	62,96
557,85	67,77
558,05	63,55
558,24	64,50
558,44	60,52
558,64	60,04
558,84	65,25
559,03	65,68
559,23	64,94
559,43	71,19
559,63	69,07
559,83	73,67
560,02	74,67
560,22	75,86
560,42	77,32
560,62	78,97
560,82	79,07
561,01	77,80
561,21	73,13
561,41	73,05
561,61	72,68
561,80	76,02
562,00	76,63
562,20	79,29
562,40	79,59
562,59	77,42
562,79	76,80
562,99	71,83
563,19	78,37
563,38	79,17
563,58	80,01
563,78	78,69
563,98	82,11
564,17	82,71
564,37	87,02
564,57	88,94
564,77	90,70
564,96	93,16
565,16	84,56
565,36	90,32
565,56	88,79
565,75	87,84
565,95	87,77
566,15	87,63
566,35	89,59
566,54	91,29
566,74	96,77
566,94	113,72
567,14	172,98
567,33	303,45
567,53	511,85
567,73	823,22
567,92	1202,46
568,12	1615,03
568,32	1950,86
568,52	2174,76
568,71	2177,09
568,91	1956,25
569,11	1568,24
569,30	1154,10
569,50	825,90
569,70	555,35
569,90	375,89
570,09	277,25
570,29	210,14
570,49	184,04
570,68	158,48
570,88	144,02
571,08	135,63
571,27	130,10
571,47	125,99
571,67	126,07
571,87	127,63
572,06	126,22
572,26	128,49
572,46	129,81
572,65	136,00
572,85	128,59
573,05	137,88
573,24	140,46
573,44	141,54
573,64	149,69
573,83	156,29
574,03	161,08
574,23	165,13
574,42	165,21
574,62	176,22
574,82	187,45
575,01	190,36
575,21	196,77
575,41	204,01
575,60	202,19
575,80	202,41
576,00	203,37
576,19	203,53
576,39	205,54
576,59	212,75
576,78	215,70
576,98	218,91
577,18	220,19
577,37	230,22
577,57	237,56
577,77	246,49
577,96	252,75
578,16	259,05
578,35	281,02
578,55	287,85
578,75	299,82
578,94	299,13
579,14	310,89
579,34	307,94
579,53	309,80
579,73	314,93
579,93	310,09
580,12	309,38
580,32	305,66
580,51	306,34
580,71	319,05
580,91	322,00
581,10	331,20
581,30	336,20
581,50	351,26
581,69	354,68
581,89	364,86
582,08	372,92
582,28	388,08
582,48	391,76
582,67	412,14
582,87	416,74
583,06	435,00
583,26	457,43
583,46	476,01
583,65	490,65
583,85	522,35
584,04	556,96
584,24	597,56
584,44	640,38
584,63	694,69
584,83	755,13
585,02	818,82
585,22	877,58
585,42	943,15
585,61	1003,45
585,81	1076,15
586,00	1156,66
586,20	1244,93
586,39	1360,72
586,59	1499,10
586,79	1650,04
586,98	1916,38
587,18	2284,75
587,37	2979,05
587,57	5349,12
587,76	18699,36
587,96	54096,45
588,16	64221,05
588,35	64226,78
588,55	64225,90
588,74	64228,93
588,94	64224,87
589,13	64227,61
589,33	64224,66
589,52	64227,83
589,72	64221,71
589,92	64229,11
590,11	64218,57
590,31	64229,38
590,50	64220,17
590,70	64224,49
590,89	64229,16
591,09	64228,99
591,28	64226,19
591,48	64227,22
591,67	64219,90
591,87	64232,73
592,06	64221,52
592,26	64226,50
592,46	64220,83
592,65	64231,98
592,85	64224,33
593,04	64228,66
593,24	64222,40
593,43	64230,24
593,63	64224,51
593,82	64231,29
594,02	64222,64
594,21	64226,77
594,41	64224,64
594,60	64228,39
594,80	64226,62
594,99	64228,46
595,19	64223,30
595,38	64228,05
595,58	64221,98
595,77	64229,52
595,97	64225,99
596,16	64227,89
596,36	64223,88
596,55	64233,31
596,75	64225,22
596,94	64235,94
597,14	64220,90
597,33	64227,42
597,53	64224,32
597,72	57527,23
597,92	59455,06
598,11	33330,17
598,31	40045,21
598,50	10879,21
598,70	13517,15
598,89	4143,69
599,09	5314,03
599,28	2460,70
599,48	2482,95
599,67	2430,45
599,87	2424,89
600,06	2413,88
600,26	2402,08
600,45	2389,03
600,64	2392,45
600,84	2302,83
601,03	2374,03
601,23	1618,99
601,42	2080,84
601,62	1412,97
601,81	1550,84
602,01	907,81
602,20	1229,32
602,40	728,62
602,59	902,77
602,78	269,41
602,98	607,97
603,17	262,85
603,37	258,44
603,56	254,94
603,76	244,98
603,95	233,63
604,15	233,70
604,34	227,38
604,53	222,32
604,73	222,32
604,92	218,02
605,12	207,26
605,31	207,14
605,51	200,94
605,70	200,11
605,89	201,12
606,09	194,32
606,28	189,17
606,48	191,10
606,67	187,49
606,87	182,54
607,06	178,57
607,25	174,48
607,45	175,06
607,64	176,05
607,84	170,31
608,03	169,61
608,22	165,68
608,42	165,46
608,61	165,56
608,81	159,90
609,00	152,70
609,19	155,82
609,39	154,99
609,58	156,51
609,78	159,14
609,97	149,82
610,16	152,62
610,36	148,85
610,55	153,72
610,75	146,10
610,94	144,25
611,13	137,98
611,33	143,80
611,52	138,56
611,71	131,63
611,91	133,55
612,10	135,78
612,30	131,58
612,49	133,78
612,68	131,65
612,88	133,25
613,07	130,28
613,26	132,96
613,46	138,46
613,65	145,84
613,84	149,00
614,04	158,76
614,23	164,17
614,43	177,79
614,62	209,62
614,81	251,29
615,01	322,86
615,20	407,05
615,39	481,80
615,59	548,17
615,78	590,77
615,97	592,04
616,17	541,20
616,36	460,06
616,55	367,35
616,75	295,59
616,94	227,23
617,13	183,40
617,33	158,95
617,52	142,99
617,71	127,26
617,91	126,17
618,10	116,49
618,29	113,28
618,49	106,53
618,68	105,74
618,87	97,84
619,07	102,99
619,26	104,35
619,45	101,73
619,65	100,15
619,84	95,34
620,03	96,12
620,22	98,36
620,42	93,78
620,61	96,46
620,80	100,68
621,00	100,06
621,19	93,05
621,38	98,48
621,58	98,04
621,77	91,66
621,96	93,75
622,15	99,89
622,35	93,46
622,54	93,62
622,73	96,53
622,93	96,05
623,12	91,60
623,31	91,72
623,50	94,20
623,70	93,75
623,89	87,68
624,08	83,51
624,28	86,41
624,47	88,75
624,66	90,98
624,85	88,79
625,05	85,33
625,24	86,69
625,43	87,16
625,62	82,49
625,82	86,52
626,01	82,27
626,20	81,76
626,39	87,93
626,59	79,72
626,78	85,94
626,97	82,56
627,17	83,28
627,36	82,28
627,55	81,46
627,74	82,33
627,93	80,66
628,13	76,30
628,32	81,89
628,51	81,20
628,70	80,06
628,90	82,05
629,09	83,59
629,28	80,16
629,47	77,74
629,67	81,82
629,86	81,99
630,05	79,54
630,24	82,38
630,44	81,75
630,63	80,64
630,82	80,67
631,01	76,32
631,20	74,62
631,40	75,57
631,59	71,56
631,78	75,29
631,97	70,43
632,16	72,82
632,36	74,26
632,55	68,99
632,74	69,16
632,93	73,64
633,13	71,14
633,32	68,92
633,51	71,62
633,70	72,26
633,89	68,43
634,09	67,30
634,28	69,43
634,47	68,83
634,66	67,77
634,85	66,52
635,04	66,44
635,24	64,39
635,43	67,62
635,62	69,54
635,81	65,38
636,00	68,72
636,20	66,16
636,39	69,22
636,58	65,97
636,77	70,47
636,96	68,46
637,15	68,56
637,35	68,84
637,54	68,16
637,73	66,35
637,92	67,41
638,11	65,21
638,30	68,75
638,50	64,12
638,69	63,17
638,88	62,27
639,07	64,44
639,26	64,40
639,45	63,48
639,64	64,36
639,84	59,96
640,03	58,62
640,22	63,10
640,41	61,16
640,60	61,96
640,79	59,40
640,98	66,80
641,18	71,42
641,37	68,33
641,56	70,29
641,75	74,24
641,94	67,89
642,13	68,08
642,32	62,80
642,52	63,33
642,71	59,97
642,90	55,57
643,09	60,23
643,28	56,55
643,47	55,20
643,66	57,13
643,85	56,00
644,04	59,47
644,24	56,36
644,43	58,03
644,62	56,61
644,81	59,13
645,00	54,78
645,19	53,84
645,38	58,00
645,57	53,45
645,76	52,71
645,96	49,91
646,15	53,44
646,34	48,37
646,53	51,08
646,72	53,30
646,91	54,74
647,10	51,38
647,29	49,09
647,48	47,32
647,67	44,98
647,86	51,53
648,05	47,81
648,25	48,87
648,44	50,02
648,63	50,69
648,82	50,12
649,01	60,01
649,20	61,34
649,39	64,65
649,58	64,18
649,77	67,63
649,96	62,95
650,15	57,17
650,34	55,14
650,53	51,67
650,72	49,02
650,91	54,05
651,11	50,05
651,30	47,85
651,49	41,94
651,68	43,93
651,87	44,02
652,06	43,53
652,25	42,08
652,44	45,72
652,63	44,26
652,82	46,58
653,01	44,59
653,20	42,73
653,39	43,51
653,58	45,37
653,77	41,86
653,96	43,46
654,15	45,57
654,34	42,06
654,53	43,80
654,72	41,27
654,91	45,02
655,10	40,96
655,29	41,26
655,48	43,28
655,67	42,11
655,86	44,90
656,05	41,87
656,24	42,01
656,43	42,03
656,62	39,41
656,81	37,67
657,00	39,58
657,19	41,66
657,38	40,77
657,57	36,25
657,76	39,46
657,95	39,01
658,14	32,88
658,33	35,63
658,52	42,57
658,71	37,68
658,90	40,02
659,09	37,79
659,28	38,88
659,47	40,64
659,66	36,91
659,85	41,69
660,04	36,42
660,23	44,04
660,42	38,29
660,61	39,75
660,80	31,43
660,99	37,76
661,18	36,45
661,37	30,75
661,56	34,39
661,75	35,77
661,94	37,39
662,13	32,30
662,32	35,07
662,51	33,46
662,70	32,21
662,89	38,77
663,08	35,75
663,27	32,83
663,46	35,04
663,65	30,72
663,83	29,15
664,02	32,74
664,21	30,59
664,40	31,02
664,59	32,77
664,78	31,55
664,97	34,12
665,16	27,24
665,35	32,59
665,54	30,78
665,73	31,26
665,92	31,03
666,11	36,39
666,30	35,54
666,49	33,47
666,67	31,65
666,86	33,41
667,05	32,34
667,24	41,05
667,43	42,14
667,62	46,43
667,81	43,36
668,00	42,22
668,19	39,54
668,38	37,50
668,57	33,14
668,76	30,02
668,94	25,79
669,13	29,38
669,32	27,47
669,51	29,27
669,70	24,85
669,89	30,28
670,08	27,15
670,27	26,43
670,46	30,76
670,64	27,89
670,83	32,46
671,02	30,99
671,21	20,04
671,40	26,34
671,59	28,64
671,78	25,03
671,97	27,19
672,16	28,99
672,34	26,58
672,53	26,20
672,72	24,65
672,91	20,83
673,10	22,18
673,29	27,59
673,48	23,83
673,66	21,76
673,85	23,33
674,04	23,63
674,23	26,21
674,42	31,97
674,61	33,08
674,80	40,66
674,98	45,68
675,17	47,27
675,36	45,48
675,55	44,37
675,74	39,12
675,93	39,07
676,12	30,76
676,30	27,10
676,49	22,69
676,68	26,80
676,87	24,79
677,06	19,48
677,25	24,39
677,43	21,33
677,62	23,68
677,81	23,15
678,00	22,67
678,19	21,45
678,37	19,69
678,56	19,91
678,75	18,92
678,94	20,59
679,13	16,93
679,32	22,03
679,50	18,12
679,69	19,06
679,88	19,65
680,07	20,85
680,26	21,67
680,44	20,02
680,63	17,82
680,82	20,75
681,01	21,78
681,20	25,06
681,38	17,92
681,57	20,84
681,76	16,06
681,95	14,48
682,14	21,86
682,32	19,35
682,51	19,66
682,70	21,34
682,89	20,77
683,07	17,25
683,26	15,12
683,45	19,46
683,64	18,91
683,83	18,15
684,01	17,72
684,20	16,79
684,39	20,29
684,58	11,95
684,76	16,41
684,95	14,08
685,14	15,53
685,33	16,08
685,52	17,30
685,70	18,86
685,89	21,11
686,08	19,60
686,27	20,96
686,45	30,67
686,64	31,82
686,83	36,53
687,02	36,73
687,20	36,87
687,39	36,87
687,58	32,87
687,76	27,23
687,95	26,93
688,14	24,59
688,33	21,65
688,51	21,82
688,70	21,16
688,89	20,90
689,08	19,27
689,26	19,97
689,45	20,73
689,64	17,92
689,83	17,00
690,01	14,53
690,20	16,24
690,39	14,89
690,57	12,71
690,76	17,58
690,95	15,73
691,14	19,27
691,32	18,78
691,51	14,38
691,70	17,20
691,88	16,49
692,07	13,60
692,26	19,47
692,44	7,00
692,63	15,26
692,82	19,42
693,01	18,29
693,19	18,69
693,38	23,58
693,57	28,01
693,75	22,78
693,94	23,76
694,13	21,97
694,31	24,14
694,50	24,40
694,69	24,27
694,87	24,57
695,06	32,51
695,25	72,85
695,43	162,45
695,62	331,03
695,81	536,87
695,99	749,29
696,18	948,81
696,37	1079,62
696,55	1092,43
696,74	984,75
696,93	856,48
697,11	707,89
697,30	555,38
697,49	414,99
697,67	304,47
697,86	229,86
698,05	166,17
698,23	123,77
698,42	90,31
698,61	65,50
698,79	54,07
698,98	42,83
699,17	34,53
699,35	29,75
699,54	24,56
699,72	16,97
699,91	14,53
700,10	19,08
700,28	17,39
700,47	11,44
700,66	14,64
700,84	11,61
701,03	14,61
701,21	14,60
701,40	19,64
701,59	15,20
701,77	9,82
701,96	19,71
702,15	15,24
702,33	26,82
702,52	26,85
702,70	32,75
702,89	33,90
703,08	29,61
703,26	27,85
703,45	28,77
703,63	25,31
703,82	22,09
704,01	17,75
704,19	22,32
704,38	17,50
704,56	17,11
704,75	16,21
704,94	16,31
705,12	20,20
705,31	29,09
705,49	66,66
705,68	144,51
705,86	263,63
706,05	417,40
706,24	577,48
706,42	699,79
706,61	745,64
706,79	721,59
706,98	656,74
707,17	570,12
707,35	468,41
707,54	353,95
707,72	266,94
707,91	188,05
708,09	142,63
708,28	107,10
708,46	79,01
708,65	61,86
708,84	46,26
709,02	36,33
709,21	28,97
709,39	22,22
709,58	19,81
709,76	26,49
709,95	20,19
710,13	19,16
710,32	17,87
710,50	17,91
710,69	17,42
710,88	18,49
711,06	18,79
711,25	14,49
711,43	13,25
711,62	16,90
711,80	11,51
711,99	17,19
712,17	16,91
712,36	12,25
712,54	14,87
712,73	9,96
712,91	14,64
713,10	15,94
713,28	15,23
713,47	15,81
713,65	23,94
713,84	41,60
714,02	56,67
714,21	85,61
714,39	108,88
714,58	113,48
714,76	111,35
714,95	98,10
715,13	87,94
715,32	73,27
715,50	60,12
715,69	45,72
715,87	36,19
716,06	30,32
716,24	26,05
716,43	16,60
716,61	20,93
716,80	22,02
716,98	13,27
717,17	17,58
717,35	15,38
717,54	13,91
717,72	17,52
717,91	15,51
718,09	12,44
718,28	10,32
718,46	9,51
718,65	12,64
718,83	12,45
719,01	13,57
719,20	12,04
719,38	11,37
719,57	12,26
719,75	14,61
719,94	13,15
720,12	14,93
720,31	19,66
720,49	16,49
720,68	17,56
720,86	16,42
721,04	13,36
721,23	14,14
721,41	13,99
721,60	14,03
721,78	15,17
721,97	6,33
722,15	10,87
722,34	12,02
722,52	13,72
722,70	11,24
722,89	13,01
723,07	14,40
723,26	14,16
723,44	14,37
723,63	11,49
723,81	10,12
723,99	12,84
724,18	11,51
724,36	15,37
724,55	11,40
724,73	10,44
724,91	14,70
725,10	12,15
725,28	13,44
725,47	8,58
725,65	10,96
725,83	15,79
726,02	25,98
726,20	46,47
726,39	85,37
726,57	140,43
726,75	209,51
726,94	272,25
727,12	307,51
727,31	304,89
727,49	285,11
727,67	250,40
727,86	202,47
728,04	160,91
728,23	119,34
728,41	94,07
728,59	65,82
728,78	53,54
728,96	42,43
729,14	31,39
729,33	30,50
729,51	22,35
729,69	13,04
729,88	21,51
730,06	16,87
730,25	14,02
730,43	17,41
730,61	17,10
730,80	14,56
730,98	15,15
731,16	19,75
731,35	15,86
731,53	15,52
731,71	14,18
731,90	13,02
732,08	16,18
732,26	16,03
732,45	13,57
732,63	12,42
732,81	10,81
733,00	10,68
733,18	9,52
733,36	11,99
733,55	11,31
733,73	10,20
733,91	11,99
734,10	11,70
734,28	12,38
734,46	12,34
734,65	14,74
734,83	17,68
735,01	20,85
735,20	19,21
735,38	20,58
735,56	19,98
735,75	21,91
735,93	14,38
736,11	23,53
736,30	20,38
736,48	27,57
736,66	27,09
736,84	38,24
737,03	67,97
737,21	123,99
737,39	255,94
737,58	431,24
737,76	624,96
737,94	797,64
738,12	949,85
738,31	975,37
738,49	963,15
738,67	886,50
738,86	770,29
739,04	658,98
739,22	526,22
739,40	418,39
739,59	321,96
739,77	238,62
739,95	185,89
740,14	135,53
740,32	102,02
740,50	76,05
740,68	62,24
740,87	44,16
741,05	41,17
741,23	33,79
741,41	25,61
741,60	27,95
741,78	23,60
741,96	18,92
742,14	15,22
742,33	19,76
742,51	14,81
742,69	16,69
742,87	14,61
743,06	12,18
743,24	19,42
743,42	14,25
743,60	15,73
743,79	15,59
743,97	20,07
744,15	15,73
744,33	16,59
744,52	9,47
744,70	16,73
744,88	11,70
745,06	11,15
745,24	17,77
745,43	13,52
745,61	17,27
745,79	14,83
745,97	12,46
746,16	14,92
746,34	14,69
746,52	9,26
746,70	10,30
746,88	15,96
747,07	9,71
747,25	13,74
747,43	15,42
747,61	16,50
747,79	16,88
747,98	15,21
748,16	13,99
748,34	14,54
748,52	16,34
748,70	19,30
748,89	23,57
749,07	47,58
749,25	107,82
749,43	214,72
749,61	362,11
749,79	525,51
749,98	659,26
750,16	769,33
750,34	820,37
750,52	869,62
750,70	901,57
750,88	966,85
751,07	1000,18
751,25	1013,75
751,43	977,84
751,61	897,77
751,79	813,23
751,97	706,56
752,16	596,17
752,34	481,43
752,52	385,20
752,70	298,77
752,88	232,58
753,06	172,39
753,25	127,70
753,43	96,26
753,61	83,76
753,79	64,41
753,97	51,12
754,15	37,02
754,33	33,67
754,52	26,71
754,70	28,27
754,88	19,15
755,06	14,92
755,24	18,00
755,42	12,00
755,60	17,77
755,78	16,67
755,97	14,18
756,15	12,73
756,33	11,26
756,51	15,54
756,69	16,27
756,87	11,02
757,05	12,14
757,23	11,38
757,41	10,29
757,60	9,97
757,78	14,33
757,96	13,91
758,14	10,74
758,32	12,15
758,50	12,23
758,68	12,72
758,86	5,43
759,04	9,26
759,22	12,88
759,41	13,92
759,59	20,50
759,77	10,45
759,95	14,90
760,13	14,45
760,31	14,65
760,49	14,91
760,67	9,91
760,85	21,54
761,03	17,69
761,21	14,37
761,39	19,29
761,57	15,31
761,76	28,01
761,94	44,75
762,12	114,03
762,30	300,27
762,48	634,01
762,66	1085,20
762,84	1675,45
763,02	2301,37
763,20	2934,00
763,38	3195,15
763,56	3221,31
763,74	2985,60
763,92	2669,53
764,10	2228,70
764,28	1800,81
764,46	1428,24
764,64	1144,47
764,82	911,38
765,00	734,92
765,19	591,12
765,37	491,72
765,55	437,67
765,73	432,13
765,91	451,33
766,09	487,16
766,27	516,96
766,45	519,78
766,63	495,25
766,81	443,04
766,99	378,99
767,17	311,42
767,35	242,82
767,53	191,34
767,71	146,16
767,89	114,39
768,07	89,71
768,25	70,88
768,43	59,04
768,61	50,66
768,79	58,77
768,97	77,51
769,15	121,47
769,33	165,05
769,51	215,58
769,69	247,83
769,87	256,58
770,05	252,11
770,23	226,16
770,41	197,73
770,59	168,75
770,77	136,86
770,95	124,27
771,13	155,17
771,31	254,71
771,49	458,83
771,67	682,86
771,85	917,93
772,03	1119,75
772,21	1266,67
772,38	1283,99
772,56	1243,33
772,74	1140,26
772,92	1011,46
773,10	866,25
773,28	720,12
773,46	596,04
773,64	477,51
773,82	378,99
774,00	295,32
774,18	227,16
774,36	177,89
774,54	136,40
774,72	106,21
774,90	85,57
775,08	66,77
775,26	57,05
775,44	49,61
775,62	38,15
775,80	37,42
775,97	25,77
776,15	17,81
776,33	19,79
776,51	16,97
776,69	16,01
776,87	14,23
777,05	12,97
777,23	11,13
777,41	9,60
777,59	9,25
777,77	4,42
777,95	9,91
778,13	9,04
778,30	12,38
778,48	11,99
778,66	12,29
778,84	9,66
779,02	10,04
779,20	11,15
779,38	8,23
779,56	7,48
779,74	9,62
779,92	10,04
780,09	8,46
780,27	15,72
780,45	11,96
780,63	12,56
780,81	10,99
780,99	11,39
781,17	13,91
781,35	12,24
781,52	13,93
781,70	14,55
781,88	12,93
782,06	10,75
782,24	14,35
782,42	7,27
782,60	7,18
782,78	10,20
782,95	12,41
783,13	9,87
783,31	6,92
783,49	12,04
783,67	13,97
783,85	7,80
784,03	9,89
784,20	13,83
784,38	14,01
784,56	11,92
784,74	11,86
784,92	7,04
785,10	7,95
785,28	12,89
785,45	13,60
785,63	14,50
785,81	8,98
785,99	15,09
786,17	8,01
786,35	12,22
786,52	11,89
786,70	12,28
786,88	7,35
787,06	16,99
787,24	16,18
787,41	7,46
787,59	14,04
787,77	10,54
787,95	7,91
788,13	12,15
788,31	11,97
788,48	12,67
788,66	14,16
788,84	13,86
789,02	10,43
789,20	8,72
789,37	15,48
789,55	13,20
789,73	14,08
789,91	14,82
790,09	14,47
790,26	12,76
790,44	10,02
790,62	9,26
790,80	9,49
790,98	8,45
791,15	16,40
791,33	12,22
791,51	17,12
791,69	11,40
791,86	12,43
792,04	11,59
792,22	10,82
792,40	9,90
792,58	12,53
792,75	14,24
792,93	10,77
793,11	10,21
793,29	20,08
793,46	38,69
793,64	94,81
793,82	200,25
794,00	352,96
794,17	519,60
794,35	659,37
794,53	759,08
794,71	802,69
794,88	796,49
795,06	766,87
795,24	710,16
795,42	641,48
795,59	555,16
795,77	470,48
795,95	391,74
796,13	320,51
796,30	254,28
796,48	202,73
796,66	156,40
796,83	128,28
797,01	96,48
797,19	78,52
797,37	66,94
797,54	51,78
797,72	44,30
797,90	40,52
798,08	38,87
798,25	28,33
798,43	26,54
798,61	23,34
798,78	20,98
798,96	19,71
799,14	24,81
799,31	41,60
799,49	73,11
799,67	147,33
799,85	239,87
800,02	348,10
800,20	452,08
800,38	560,53
800,55	657,90
800,73	770,86
800,91	865,25
801,08	938,75
801,26	985,93
801,44	969,54
801,61	916,14
801,79	851,66
801,97	770,11
802,15	689,94
802,32	591,58
802,50	509,34
802,68	420,44
802,85	353,25
803,03	278,88
803,21	228,87
803,38	180,32
803,56	142,13
803,74	114,44
803,91	90,43
804,09	74,84
804,26	61,76
804,44	51,74
804,62	44,07
804,79	42,47
804,97	34,00
805,15	29,43
805,32	27,41
805,50	21,14
805,68	18,01
805,85	21,67
806,03	19,16
806,21	18,23
806,38	12,21
806,56	16,71
806,73	15,84
806,91	11,56
807,09	13,82
807,26	12,15
807,44	15,52
807,62	13,89
807,79	21,70
807,97	17,24
808,14	19,34
808,32	19,05
808,50	21,45
808,67	19,13
808,85	31,63
809,02	60,58
809,20	129,24
809,38	265,92
809,55	434,03
809,73	598,36
809,90	740,01
810,08	883,05
810,26	1020,20
810,43	1160,07
810,61	1440,38
810,78	1789,85
810,96	2106,64
811,14	2425,16
811,31	2675,55
811,49	2683,72
811,66	2568,73
811,84	2425,03
812,02	2219,99
812,19	1941,99
812,37	1659,28
812,54	1419,81
812,72	1200,91
812,89	1001,06
813,07	835,35
813,25	692,45
813,42	570,93
813,60	468,38
813,77	380,72
813,95	299,49
814,12	253,45
814,30	207,76
814,47	166,74
814,65	138,19
814,83	121,03
815,00	97,33
815,18	80,52
815,35	69,83
815,53	56,91
815,70	47,06
815,88	39,04
816,05	36,26
816,23	35,71
816,40	29,46
816,58	35,12
816,75	44,67
816,93	87,13
817,10	193,75
817,28	416,55
817,46	726,04
817,63	1077,46
817,81	1412,13
817,98	1777,89
818,16	2083,73
818,33	2406,67
818,51	2727,29
818,68	3198,02
818,86	3664,13
819,03	4076,89
819,21	4371,46
819,38	4598,42
819,56	4423,55
819,73	4194,07
819,91	3870,68
820,08	3504,19
820,26	3004,23
820,43	2562,47
820,61	2138,28
820,78	1768,47
820,96	1445,03
821,13	1171,25
821,31	949,92
821,48	757,40
821,66	615,95
821,83	495,48
822,00	400,25
822,18	318,26
822,35	258,01
822,53	207,31
822,70	166,73
822,88	143,63
823,05	122,27
823,23	102,87
823,40	78,70
823,58	67,61
823,75	50,71
823,93	43,90
824,10	35,87
824,28	36,17
824,45	24,47
824,62	23,43
824,80	26,06
824,97	33,16
825,15	46,24
825,32	79,22
825,50	152,36
825,67	242,85
825,85	328,91
826,02	417,60
826,19	497,64
826,37	539,05
826,54	539,14
826,72	537,49
826,89	508,01
827,07	483,44
827,24	435,44
827,41	391,24
827,59	335,81
827,76	287,89
827,94	236,48
828,11	195,90
828,28	159,39
828,46	128,77
828,63	99,37
828,81	83,48
828,98	71,28
829,15	57,40
829,33	44,09
829,50	44,92
829,68	32,44
829,85	33,16
830,02	27,49
830,20	23,85
830,37	20,58
830,55	15,43
830,72	19,29
830,89	16,12
831,07	12,84
831,24	15,87
831,42	12,72
831,59	6,71
831,76	9,09
831,94	12,78
832,11	6,25
832,28	9,23
832,46	8,89
832,63	12,57
832,81	5,77
832,98	8,29
833,15	9,47
833,33	12,84
833,50	8,32
833,67	6,36
833,85	9,38
834,02	11,57
834,19	8,73
834,37	11,41
834,54	10,35
834,71	13,61
834,89	8,77
835,06	9,41
835,23	12,62
835,41	10,80
835,58	7,10
835,75	7,78
835,93	8,38
836,10	13,11
836,27	2,82
836,45	8,24
836,62	10,83
836,79	13,39
836,97	9,37
837,14	8,62
837,31	7,30
837,49	14,31
837,66	10,26
837,83	13,46
838,01	6,84
838,18	10,30
838,35	10,95
838,53	9,45
838,70	10,24
838,87	10,42
839,04	13,46
839,22	15,19
839,39	28,12
839,56	53,18
839,74	99,00
839,91	169,88
840,08	257,57
840,26	349,69
840,43	450,37
840,60	532,56
840,77	599,75
840,95	639,13
841,12	654,49
841,29	653,40
841,46	656,29
841,64	689,80
841,81	727,04
841,98	776,16
842,16	839,84
842,33	891,25
842,50	906,14
842,67	907,35
842,85	869,77
843,02	822,34
843,19	761,10
843,36	694,10
843,54	629,46
843,71	560,47
843,88	490,80
844,05	415,70
844,23	351,81
844,40	294,80
844,57	231,98
844,74	193,25
844,92	160,12
845,09	129,85
845,26	102,71
845,43	83,57
845,61	62,07
845,78	61,75
845,95	48,50
846,12	43,89
846,29	38,07
846,47	31,53
846,64	23,76
846,81	19,16
846,98	22,39
847,16	13,28
847,33	11,67
847,50	12,85
847,67	13,11
847,84	10,16
848,02	7,15
848,19	12,43
848,36	1,37
848,53	8,67
848,70	8,88
848,88	8,81
849,05	11,54
849,22	9,54
849,39	9,83
849,56	9,19
849,74	8,32
849,91	12,70
850,08	7,99
850,25	7,26
850,42	8,82
850,60	6,87
850,77	11,19
850,94	21,40
851,11	31,73
851,28	52,86
851,45	80,67
851,63	120,91
851,80	157,27
851,97	200,53
852,14	235,82
852,31	257,22
852,48	261,33
852,66	263,72
852,83	248,15
853,00	228,14
853,17	207,87
853,34	186,50
853,51	162,37
853,68	142,10
853,86	117,02
854,03	94,84
854,20	77,41
854,37	63,87
854,54	52,21
854,71	40,70
854,88	32,11
855,06	30,56
855,23	26,86
855,40	29,74
855,57	19,34
855,74	16,06
855,91	19,68
856,08	16,57
856,25	12,95
856,43	12,06
856,60	8,10
856,77	11,59
856,94	9,70
857,11	7,59
857,28	5,71
857,45	8,60
857,62	4,51
857,79	5,30
857,97	10,12
858,14	5,92
858,31	11,65
858,48	7,67
858,65	6,76
858,82	3,23
858,99	7,21
859,16	8,80
859,33	0,30
859,50	9,99
859,67	9,54
859,85	4,21
860,02	6,06
860,19	8,64
860,36	3,37
860,53	3,53
860,70	8,45
860,87	5,90
861,04	5,44
861,21	10,56
861,38	8,80
861,55	8,37
861,72	8,35
861,89	12,08
862,06	5,83
862,23	8,02
862,41	5,15
862,58	3,76
862,75	9,43
862,92	7,27
863,09	0,75
863,26	4,97
863,43	5,32
863,60	6,03
863,77	4,13
863,94	4,58
864,11	5,16
864,28	10,08
864,45	3,07
864,62	4,83
864,79	6,67
864,96	7,22
865,13	2,11
865,30	3,77
865,47	9,72
865,64	7,09
865,81	8,02
865,98	11,97
866,15	14,92
866,32	20,25
866,49	26,38
866,66	32,50
866,83	40,36
867,00	49,06
867,17	55,35
867,34	55,45
867,51	54,38
867,68	50,57
867,85	47,46
868,02	48,96
868,19	40,21
868,36	33,26
868,53	27,53
868,70	21,60
868,87	20,29
869,04	14,92
869,21	15,86
869,38	14,42
869,55	14,10
869,72	11,53
869,89	10,49
870,06	7,14
870,23	12,25
870,40	7,99
870,57	9,28
870,74	6,22
870,91	8,09
871,08	2,82
871,25	5,30
871,42	7,60
871,59	7,34
871,76	3,51
871,93	4,23
872,10	10,22
872,27	5,78
872,44	5,83
872,60	7,01
872,77	5,15
872,94	8,32
873,11	6,50
873,28	5,10
873,45	5,62
873,62	4,84
873,79	10,05
873,96	6,56
874,13	-0,48
874,30	2,30
874,47	4,85
874,64	9,00
874,81	3,14
874,97	3,30
875,14	8,19
875,31	6,42
875,48	3,48
875,65	7,91
875,82	3,54
875,99	3,72
876,16	6,38
876,33	7,01
876,50	4,90
876,67	7,57
876,83	5,57
877,00	4,95
877,17	6,94
877,34	5,94
877,51	4,46
877,68	7,77
877,85	1,91
878,02	6,72
878,19	5,74
878,35	4,71
878,52	5,99
878,69	3,68
878,86	2,24
879,03	2,80
879,20	6,43
879,37	5,05
879,54	1,66
879,70	8,10
879,87	4,73
880,04	5,93
880,21	7,93
880,38	2,16
880,55	2,65
880,72	10,16
880,89	5,30
881,05	3,45
881,22	2,46
881,39	4,15
881,56	5,48
881,73	0,87
881,90	9,68
882,06	7,11
882,23	4,75
882,40	5,02
882,57	4,51
882,74	3,66
882,91	7,64
883,07	6,65
883,24	3,35
883,41	8,50
883,58	1,76
883,75	4,32
883,92	3,85
884,08	8,50
884,25	4,50
884,42	1,18
884,59	5,57
884,76	4,77
884,92	4,13
885,09	9,27
885,26	2,63
885,43	5,54
885,60	5,98
885,76	4,45
885,93	5,35
886,10	3,39
886,27	0,54
886,44	4,90
886,60	3,13
886,77	4,85
886,94	6,35
887,11	8,48
887,28	9,46
887,44	6,49
887,61	5,74
887,78	2,45
887,95	6,34
888,12	5,46
888,28	2,14
888,45	7,32
888,62	5,84
888,79	1,77
888,95	1,90
889,12	1,56
889,29	4,55
889,46	5,84
889,62	6,08
889,79	5,99
889,96	3,64
890,13	4,91
890,29	0,88
890,46	1,85
890,63	3,08
890,80	3,87
890,96	4,11
891,13	3,58
891,30	1,95
891,47	3,81
891,63	6,84
891,80	2,31
891,97	8,49
892,14	5,08
892,30	4,40
892,47	5,42
892,64	4,52
892,80	2,01
892,97	0,93
893,14	1,32
893,31	1,37
893,47	4,46
893,64	3,34
893,81	5,26
893,97	3,63
894,14	3,30
